<shapes type=list>
	<ruler.pixel type=vector names=FALSE length=1 as.numeric=TRUE >685.035765489657</ruler.pixel>
	<ruler.interval type=vector names=FALSE length=1 as.numeric=TRUE >10</ruler.interval>
	<scaling.units type=vector names=FALSE length=1 as.numeric=FALSE >mm</scaling.units>
	<scaling type=vector names=FALSE length=1 as.numeric=TRUE >0.0145977779610559</scaling>
	<landmarks.pixel type=matrix rownames=TRUE colnames=FALSE nrow=4 ncol=2 as.numeric=TRUE >
		Labial	2477	1764
		Posterior	2367	1735
		Lingual	2408	1628
		Anterior	2519	1660
	</landmarks.pixel>
	<landmarks.scaled type=matrix rownames=TRUE colnames=FALSE nrow=4 ncol=2 as.numeric=TRUE >
		Labial	36.1586960095356	-25.7504803233027
		Posterior	34.5529404338194	-25.3271447624321
		Lingual	35.1514493302227	-23.7651825205991
		Anterior	36.7718026838999	-24.2323114153529
	</landmarks.scaled>
	<curves.control type=list>
		<Outline1 type=matrix rownames=FALSE colnames=FALSE nrow=23 ncol=2 as.numeric=TRUE >
			2477	1764
			2471	1770
			2467	1777
			2461	1786
			2455	1792
			2449	1797
			2443	1800
			2438	1802
			2432	1803
			2427	1804
			2422	1804
			2416	1803
			2410	1802
			2405	1801
			2398	1798
			2391	1792
			2386	1785
			2382	1779
			2378	1772
			2374	1765
			2371	1758
			2368	1752
			2367	1735
		</Outline1>
		<Outline2 type=matrix rownames=FALSE colnames=FALSE nrow=11 ncol=2 as.numeric=TRUE >
			2367	1735
			2366	1706
			2370	1689
			2372	1676
			2375	1665
			2378	1654
			2382	1645
			2386	1639
			2391	1635
			2399	1630
			2408	1628
		</Outline2>
		<Outline3 type=matrix rownames=FALSE colnames=FALSE nrow=17 ncol=2 as.numeric=TRUE >
			2408	1628
			2416	1627
			2424	1627
			2432	1626
			2440	1626
			2450	1625
			2456	1624
			2463	1623
			2470	1623
			2477	1624
			2483	1627
			2490	1631
			2495	1635
			2501	1639
			2506	1643
			2513	1650
			2519	1660
		</Outline3>
		<Outline4 type=matrix rownames=FALSE colnames=FALSE nrow=17 ncol=2 as.numeric=TRUE >
			2519	1660
			2524	1668
			2528	1675
			2530	1682
			2532	1691
			2533	1699
			2533	1707
			2530	1718
			2526	1726
			2522	1731
			2517	1735
			2512	1740
			2506	1744
			2500	1747
			2494	1750
			2487	1754
			2477	1764
		</Outline4>
	</curves.control>
	<curves.pixel type=list>
		<Outline1 type=matrix rownames=FALSE colnames=FALSE nrow=160 ncol=2 as.numeric=TRUE >
			2477	1764
			2476	1765
			2475	1766
			2474	1767
			2473	1768
			2472	1769
			2472	1770
			2471	1771
			2470	1772
			2469	1773
			2469	1774
			2468	1775
			2468	1776
			2467	1777
			2467	1778
			2466	1778
			2466	1779
			2465	1780
			2464	1781
			2464	1782
			2463	1782
			2463	1783
			2462	1784
			2462	1785
			2461	1785
			2460	1786
			2460	1787
			2459	1787
			2459	1788
			2458	1789
			2457	1790
			2456	1791
			2455	1792
			2454	1793
			2453	1794
			2452	1794
			2451	1795
			2450	1796
			2449	1797
			2448	1797
			2447	1798
			2446	1798
			2445	1799
			2444	1799
			2444	1800
			2443	1800
			2442	1800
			2441	1801
			2440	1801
			2439	1802
			2438	1802
			2437	1802
			2436	1802
			2435	1802
			2434	1803
			2433	1803
			2432	1803
			2431	1803
			2430	1803
			2429	1804
			2428	1804
			2427	1804
			2426	1804
			2425	1804
			2424	1804
			2423	1804
			2422	1804
			2421	1804
			2420	1804
			2419	1803
			2418	1803
			2417	1803
			2416	1803
			2415	1803
			2414	1803
			2413	1802
			2412	1802
			2411	1802
			2410	1802
			2409	1802
			2408	1802
			2407	1801
			2406	1801
			2405	1801
			2404	1800
			2403	1800
			2402	1800
			2401	1799
			2400	1799
			2399	1798
			2398	1798
			2397	1797
			2396	1797
			2396	1796
			2395	1795
			2394	1795
			2394	1794
			2393	1794
			2393	1793
			2392	1792
			2391	1792
			2391	1791
			2390	1790
			2389	1789
			2388	1788
			2387	1787
			2387	1786
			2386	1785
			2386	1784
			2385	1784
			2385	1783
			2384	1782
			2384	1781
			2383	1781
			2383	1780
			2382	1779
			2382	1778
			2381	1777
			2380	1776
			2380	1775
			2379	1774
			2378	1773
			2378	1772
			2377	1771
			2377	1770
			2376	1769
			2376	1768
			2375	1767
			2375	1766
			2374	1765
			2374	1764
			2373	1763
			2373	1762
			2372	1761
			2372	1760
			2371	1759
			2371	1758
			2370	1757
			2370	1756
			2370	1755
			2369	1754
			2369	1753
			2369	1752
			2369	1751
			2369	1750
			2368	1749
			2368	1748
			2368	1747
			2368	1746
			2368	1745
			2368	1744
			2368	1743
			2368	1742
			2367	1741
			2367	1740
			2367	1739
			2367	1738
			2367	1737
			2367	1736
			2367	1735
		</Outline1>
		<Outline2 type=matrix rownames=FALSE colnames=FALSE nrow=120 ncol=2 as.numeric=TRUE >
			2367	1735
			2367	1734
			2367	1733
			2367	1732
			2367	1731
			2367	1730
			2367	1729
			2367	1728
			2367	1727
			2367	1726
			2367	1725
			2367	1724
			2367	1723
			2367	1722
			2367	1721
			2367	1720
			2367	1719
			2367	1718
			2367	1717
			2367	1716
			2367	1715
			2367	1714
			2367	1713
			2367	1712
			2367	1711
			2367	1710
			2367	1709
			2367	1708
			2367	1707
			2367	1706
			2368	1705
			2368	1704
			2368	1703
			2368	1702
			2368	1701
			2368	1700
			2368	1699
			2368	1698
			2368	1697
			2369	1696
			2369	1695
			2369	1694
			2369	1693
			2369	1692
			2370	1691
			2370	1690
			2370	1689
			2370	1688
			2370	1687
			2371	1686
			2371	1685
			2371	1684
			2371	1683
			2371	1682
			2371	1681
			2372	1680
			2372	1679
			2372	1678
			2372	1677
			2372	1676
			2372	1675
			2373	1675
			2373	1674
			2373	1673
			2373	1672
			2373	1671
			2374	1670
			2374	1669
			2374	1668
			2375	1667
			2375	1666
			2375	1665
			2375	1664
			2376	1663
			2376	1662
			2376	1661
			2376	1660
			2377	1659
			2377	1658
			2377	1657
			2378	1656
			2378	1655
			2378	1654
			2379	1653
			2379	1652
			2380	1651
			2380	1650
			2380	1649
			2381	1648
			2381	1647
			2382	1646
			2382	1645
			2383	1644
			2383	1643
			2384	1643
			2384	1642
			2385	1641
			2386	1640
			2387	1639
			2388	1638
			2389	1637
			2390	1636
			2391	1635
			2392	1634
			2393	1634
			2394	1633
			2395	1633
			2396	1632
			2397	1632
			2398	1631
			2399	1631
			2400	1630
			2401	1630
			2402	1630
			2403	1629
			2404	1629
			2405	1629
			2406	1629
			2407	1628
			2408	1628
		</Outline2>
		<Outline3 type=matrix rownames=FALSE colnames=FALSE nrow=121 ncol=2 as.numeric=TRUE >
			2408	1628
			2409	1628
			2410	1628
			2411	1628
			2412	1628
			2413	1627
			2414	1627
			2415	1627
			2416	1627
			2417	1627
			2418	1627
			2419	1627
			2420	1627
			2421	1627
			2422	1627
			2423	1627
			2424	1627
			2425	1627
			2426	1627
			2427	1627
			2428	1627
			2429	1626
			2430	1626
			2431	1626
			2432	1626
			2433	1626
			2434	1626
			2435	1626
			2436	1626
			2437	1626
			2438	1626
			2439	1626
			2440	1626
			2441	1626
			2442	1626
			2443	1626
			2444	1626
			2445	1625
			2446	1625
			2447	1625
			2448	1625
			2449	1625
			2450	1625
			2451	1625
			2452	1625
			2453	1624
			2454	1624
			2455	1624
			2456	1624
			2457	1624
			2458	1624
			2459	1624
			2460	1623
			2461	1623
			2462	1623
			2463	1623
			2464	1623
			2465	1623
			2466	1623
			2467	1623
			2468	1623
			2469	1623
			2470	1623
			2471	1623
			2472	1623
			2473	1624
			2474	1624
			2475	1624
			2476	1624
			2477	1625
			2478	1625
			2479	1625
			2480	1626
			2481	1626
			2482	1627
			2483	1627
			2484	1628
			2485	1628
			2486	1629
			2487	1629
			2488	1630
			2489	1631
			2490	1631
			2491	1632
			2492	1632
			2492	1633
			2493	1633
			2493	1634
			2494	1634
			2495	1635
			2496	1636
			2497	1637
			2498	1637
			2499	1638
			2500	1638
			2501	1639
			2501	1640
			2502	1640
			2503	1641
			2504	1641
			2504	1642
			2505	1642
			2506	1643
			2507	1644
			2508	1645
			2509	1646
			2510	1647
			2511	1648
			2512	1649
			2512	1650
			2513	1651
			2513	1652
			2514	1652
			2514	1653
			2515	1654
			2516	1655
			2517	1656
			2517	1657
			2518	1658
			2518	1659
			2519	1660
		</Outline3>
		<Outline4 type=matrix rownames=FALSE colnames=FALSE nrow=127 ncol=2 as.numeric=TRUE >
			2519	1660
			2520	1661
			2520	1662
			2521	1663
			2521	1664
			2522	1665
			2522	1666
			2523	1667
			2524	1667
			2524	1668
			2525	1669
			2525	1670
			2526	1671
			2526	1672
			2527	1673
			2527	1674
			2528	1674
			2528	1675
			2528	1676
			2529	1677
			2529	1678
			2529	1679
			2529	1680
			2530	1681
			2530	1682
			2530	1683
			2530	1684
			2531	1685
			2531	1686
			2531	1687
			2531	1688
			2531	1689
			2532	1690
			2532	1691
			2532	1692
			2532	1693
			2532	1694
			2532	1695
			2532	1696
			2533	1697
			2533	1698
			2533	1699
			2533	1700
			2533	1701
			2533	1702
			2533	1703
			2533	1704
			2533	1705
			2533	1706
			2533	1707
			2533	1708
			2532	1709
			2532	1710
			2532	1711
			2531	1712
			2531	1713
			2531	1714
			2531	1715
			2530	1716
			2530	1717
			2529	1718
			2529	1719
			2529	1720
			2528	1721
			2528	1722
			2528	1723
			2527	1723
			2527	1724
			2527	1725
			2526	1726
			2525	1727
			2525	1728
			2524	1728
			2523	1729
			2522	1730
			2522	1731
			2521	1732
			2520	1732
			2519	1733
			2518	1734
			2517	1735
			2516	1736
			2515	1737
			2514	1738
			2513	1738
			2513	1739
			2512	1740
			2511	1740
			2510	1741
			2509	1742
			2508	1743
			2507	1743
			2506	1744
			2505	1744
			2504	1745
			2503	1745
			2502	1746
			2501	1747
			2500	1747
			2499	1747
			2499	1748
			2498	1748
			2497	1748
			2497	1749
			2496	1749
			2495	1749
			2495	1750
			2494	1750
			2493	1751
			2492	1751
			2491	1752
			2490	1753
			2489	1754
			2488	1754
			2487	1755
			2486	1756
			2485	1756
			2485	1757
			2484	1757
			2483	1758
			2483	1759
			2482	1759
			2481	1760
			2480	1761
			2479	1762
			2478	1763
			2477	1764
		</Outline4>
	</curves.pixel>
	<curves.scaled type=list>
		<Outline1 type=matrix rownames=FALSE colnames=FALSE nrow=160 ncol=2 as.numeric=TRUE >
			36.1586960095356	-25.7504803233027
			36.1440982315745	-25.7650781012637
			36.1295004536135	-25.7796758792248
			36.1149026756524	-25.7942736571859
			36.1003048976914	-25.8088714351469
			36.0857071197303	-25.823469213108
			36.0857071197303	-25.838066991069
			36.0711093417692	-25.8526647690301
			36.0565115638082	-25.8672625469911
			36.0419137858471	-25.8818603249522
			36.0419137858471	-25.8964581029132
			36.0273160078861	-25.9110558808743
			36.0273160078861	-25.9256536588354
			36.012718229925	-25.9402514367964
			36.012718229925	-25.9548492147575
			35.998120451964	-25.9548492147575
			35.998120451964	-25.9694469927185
			35.9835226740029	-25.9840447706796
			35.9689248960418	-25.9986425486406
			35.9689248960418	-26.0132403266017
			35.9543271180808	-26.0132403266017
			35.9543271180808	-26.0278381045627
			35.9397293401197	-26.0424358825238
			35.9397293401197	-26.0570336604849
			35.9251315621587	-26.0570336604849
			35.9105337841976	-26.0716314384459
			35.9105337841976	-26.086229216407
			35.8959360062366	-26.086229216407
			35.8959360062366	-26.100826994368
			35.8813382282755	-26.1154247723291
			35.8667404503145	-26.1300225502901
			35.8521426723534	-26.1446203282512
			35.8375448943923	-26.1592181062123
			35.8229471164313	-26.1738158841733
			35.8083493384702	-26.1884136621344
			35.7937515605092	-26.1884136621344
			35.7791537825481	-26.2030114400954
			35.7645560045871	-26.2176092180565
			35.749958226626	-26.2322069960175
			35.7353604486649	-26.2322069960175
			35.7207626707039	-26.2468047739786
			35.7061648927428	-26.2468047739786
			35.6915671147818	-26.2614025519396
			35.6769693368207	-26.2614025519396
			35.6769693368207	-26.2760003299007
			35.6623715588597	-26.2760003299007
			35.6477737808986	-26.2760003299007
			35.6331760029376	-26.2905981078618
			35.6185782249765	-26.2905981078618
			35.6039804470154	-26.3051958858228
			35.5893826690544	-26.3051958858228
			35.5747848910933	-26.3051958858228
			35.5601871131323	-26.3051958858228
			35.5455893351712	-26.3051958858228
			35.5309915572102	-26.3197936637839
			35.5163937792491	-26.3197936637839
			35.5017960012881	-26.3197936637839
			35.487198223327	-26.3197936637839
			35.4726004453659	-26.3197936637839
			35.4580026674049	-26.3343914417449
			35.4434048894438	-26.3343914417449
			35.4288071114828	-26.3343914417449
			35.4142093335217	-26.3343914417449
			35.3996115555607	-26.3343914417449
			35.3850137775996	-26.3343914417449
			35.3704159996386	-26.3343914417449
			35.3558182216775	-26.3343914417449
			35.3412204437164	-26.3343914417449
			35.3266226657554	-26.3343914417449
			35.3120248877943	-26.3197936637839
			35.2974271098333	-26.3197936637839
			35.2828293318722	-26.3197936637839
			35.2682315539112	-26.3197936637839
			35.2536337759501	-26.3197936637839
			35.239035997989	-26.3197936637839
			35.224438220028	-26.3051958858228
			35.2098404420669	-26.3051958858228
			35.1952426641059	-26.3051958858228
			35.1806448861448	-26.3051958858228
			35.1660471081838	-26.3051958858228
			35.1514493302227	-26.3051958858228
			35.1368515522617	-26.2905981078618
			35.1222537743006	-26.2905981078618
			35.1076559963395	-26.2905981078618
			35.0930582183785	-26.2760003299007
			35.0784604404174	-26.2760003299007
			35.0638626624564	-26.2760003299007
			35.0492648844953	-26.2614025519396
			35.0346671065343	-26.2614025519396
			35.0200693285732	-26.2468047739786
			35.0054715506122	-26.2468047739786
			34.9908737726511	-26.2322069960175
			34.97627599469	-26.2322069960175
			34.97627599469	-26.2176092180565
			34.961678216729	-26.2030114400954
			34.9470804387679	-26.2030114400954
			34.9470804387679	-26.1884136621344
			34.9324826608069	-26.1884136621344
			34.9324826608069	-26.1738158841733
			34.9178848828458	-26.1592181062123
			34.9032871048848	-26.1592181062123
			34.9032871048848	-26.1446203282512
			34.8886893269237	-26.1300225502901
			34.8740915489627	-26.1154247723291
			34.8594937710016	-26.100826994368
			34.8448959930405	-26.086229216407
			34.8448959930405	-26.0716314384459
			34.8302982150795	-26.0570336604849
			34.8302982150795	-26.0424358825238
			34.8157004371184	-26.0424358825238
			34.8157004371184	-26.0278381045627
			34.8011026591574	-26.0132403266017
			34.8011026591574	-25.9986425486406
			34.7865048811963	-25.9986425486406
			34.7865048811963	-25.9840447706796
			34.7719071032353	-25.9694469927185
			34.7719071032353	-25.9548492147575
			34.7573093252742	-25.9402514367964
			34.7427115473131	-25.9256536588354
			34.7427115473131	-25.9110558808743
			34.7281137693521	-25.8964581029132
			34.713515991391	-25.8818603249522
			34.713515991391	-25.8672625469911
			34.69891821343	-25.8526647690301
			34.69891821343	-25.838066991069
			34.6843204354689	-25.823469213108
			34.6843204354689	-25.8088714351469
			34.6697226575079	-25.7942736571859
			34.6697226575079	-25.7796758792248
			34.6551248795468	-25.7650781012637
			34.6551248795468	-25.7504803233027
			34.6405271015858	-25.7358825453416
			34.6405271015858	-25.7212847673806
			34.6259293236247	-25.7066869894195
			34.6259293236247	-25.6920892114585
			34.6113315456636	-25.6774914334974
			34.6113315456636	-25.6628936555364
			34.5967337677026	-25.6482958775753
			34.5967337677026	-25.6336980996142
			34.5967337677026	-25.6191003216532
			34.5821359897415	-25.6045025436921
			34.5821359897415	-25.5899047657311
			34.5821359897415	-25.57530698777
			34.5821359897415	-25.560709209809
			34.5821359897415	-25.5461114318479
			34.5675382117805	-25.5315136538868
			34.5675382117805	-25.5169158759258
			34.5675382117805	-25.5023180979647
			34.5675382117805	-25.4877203200037
			34.5675382117805	-25.4731225420426
			34.5675382117805	-25.4585247640816
			34.5675382117805	-25.4439269861205
			34.5675382117805	-25.4293292081595
			34.5529404338194	-25.4147314301984
			34.5529404338194	-25.4001336522373
			34.5529404338194	-25.3855358742763
			34.5529404338194	-25.3709380963152
			34.5529404338194	-25.3563403183542
			34.5529404338194	-25.3417425403931
			34.5529404338194	-25.3271447624321
		</Outline1>
		<Outline2 type=matrix rownames=FALSE colnames=FALSE nrow=120 ncol=2 as.numeric=TRUE >
			34.5529404338194	-25.3271447624321
			34.5529404338194	-25.312546984471
			34.5529404338194	-25.29794920651
			34.5529404338194	-25.2833514285489
			34.5529404338194	-25.2687536505878
			34.5529404338194	-25.2541558726268
			34.5529404338194	-25.2395580946657
			34.5529404338194	-25.2249603167047
			34.5529404338194	-25.2103625387436
			34.5529404338194	-25.1957647607826
			34.5529404338194	-25.1811669828215
			34.5529404338194	-25.1665692048604
			34.5529404338194	-25.1519714268994
			34.5529404338194	-25.1373736489383
			34.5529404338194	-25.1227758709773
			34.5529404338194	-25.1081780930162
			34.5529404338194	-25.0935803150552
			34.5529404338194	-25.0789825370941
			34.5529404338194	-25.0643847591331
			34.5529404338194	-25.049786981172
			34.5529404338194	-25.0351892032109
			34.5529404338194	-25.0205914252499
			34.5529404338194	-25.0059936472888
			34.5529404338194	-24.9913958693278
			34.5529404338194	-24.9767980913667
			34.5529404338194	-24.9622003134057
			34.5529404338194	-24.9476025354446
			34.5529404338194	-24.9330047574836
			34.5529404338194	-24.9184069795225
			34.5529404338194	-24.9038092015614
			34.5675382117805	-24.8892114236004
			34.5675382117805	-24.8746136456393
			34.5675382117805	-24.8600158676783
			34.5675382117805	-24.8454180897172
			34.5675382117805	-24.8308203117562
			34.5675382117805	-24.8162225337951
			34.5675382117805	-24.801624755834
			34.5675382117805	-24.787026977873
			34.5675382117805	-24.7724291999119
			34.5821359897415	-24.7578314219509
			34.5821359897415	-24.7432336439898
			34.5821359897415	-24.7286358660288
			34.5821359897415	-24.7140380880677
			34.5821359897415	-24.6994403101067
			34.5967337677026	-24.6848425321456
			34.5967337677026	-24.6702447541845
			34.5967337677026	-24.6556469762235
			34.5967337677026	-24.6410491982624
			34.5967337677026	-24.6264514203014
			34.6113315456636	-24.6118536423403
			34.6113315456636	-24.5972558643793
			34.6113315456636	-24.5826580864182
			34.6113315456636	-24.5680603084572
			34.6113315456636	-24.5534625304961
			34.6113315456636	-24.538864752535
			34.6259293236247	-24.524266974574
			34.6259293236247	-24.5096691966129
			34.6259293236247	-24.4950714186519
			34.6259293236247	-24.4804736406908
			34.6259293236247	-24.4658758627298
			34.6259293236247	-24.4512780847687
			34.6405271015858	-24.4512780847687
			34.6405271015858	-24.4366803068077
			34.6405271015858	-24.4220825288466
			34.6405271015858	-24.4074847508855
			34.6405271015858	-24.3928869729245
			34.6551248795468	-24.3782891949634
			34.6551248795468	-24.3636914170024
			34.6551248795468	-24.3490936390413
			34.6697226575079	-24.3344958610803
			34.6697226575079	-24.3198980831192
			34.6697226575079	-24.3053003051581
			34.6697226575079	-24.2907025271971
			34.6843204354689	-24.276104749236
			34.6843204354689	-24.261506971275
			34.6843204354689	-24.2469091933139
			34.6843204354689	-24.2323114153529
			34.69891821343	-24.2177136373918
			34.69891821343	-24.2031158594308
			34.69891821343	-24.1885180814697
			34.713515991391	-24.1739203035086
			34.713515991391	-24.1593225255476
			34.713515991391	-24.1447247475865
			34.7281137693521	-24.1301269696255
			34.7281137693521	-24.1155291916644
			34.7427115473131	-24.1009314137034
			34.7427115473131	-24.0863336357423
			34.7427115473131	-24.0717358577813
			34.7573093252742	-24.0571380798202
			34.7573093252742	-24.0425403018591
			34.7719071032353	-24.0279425238981
			34.7719071032353	-24.013344745937
			34.7865048811963	-23.998746967976
			34.7865048811963	-23.9841491900149
			34.8011026591574	-23.9841491900149
			34.8011026591574	-23.9695514120539
			34.8157004371184	-23.9549536340928
			34.8302982150795	-23.9403558561317
			34.8448959930405	-23.9257580781707
			34.8594937710016	-23.9111603002096
			34.8740915489627	-23.8965625222486
			34.8886893269237	-23.8819647442875
			34.9032871048848	-23.8673669663265
			34.9178848828458	-23.8527691883654
			34.9324826608069	-23.8527691883654
			34.9470804387679	-23.8381714104044
			34.961678216729	-23.8381714104044
			34.97627599469	-23.8235736324433
			34.9908737726511	-23.8235736324433
			35.0054715506122	-23.8089758544822
			35.0200693285732	-23.8089758544822
			35.0346671065343	-23.7943780765212
			35.0492648844953	-23.7943780765212
			35.0638626624564	-23.7943780765212
			35.0784604404174	-23.7797802985601
			35.0930582183785	-23.7797802985601
			35.1076559963395	-23.7797802985601
			35.1222537743006	-23.7797802985601
			35.1368515522617	-23.7651825205991
			35.1514493302227	-23.7651825205991
		</Outline2>
		<Outline3 type=matrix rownames=FALSE colnames=FALSE nrow=121 ncol=2 as.numeric=TRUE >
			35.1514493302227	-23.7651825205991
			35.1660471081838	-23.7651825205991
			35.1806448861448	-23.7651825205991
			35.1952426641059	-23.7651825205991
			35.2098404420669	-23.7651825205991
			35.224438220028	-23.750584742638
			35.239035997989	-23.750584742638
			35.2536337759501	-23.750584742638
			35.2682315539112	-23.750584742638
			35.2828293318722	-23.750584742638
			35.2974271098333	-23.750584742638
			35.3120248877943	-23.750584742638
			35.3266226657554	-23.750584742638
			35.3412204437164	-23.750584742638
			35.3558182216775	-23.750584742638
			35.3704159996386	-23.750584742638
			35.3850137775996	-23.750584742638
			35.3996115555607	-23.750584742638
			35.4142093335217	-23.750584742638
			35.4288071114828	-23.750584742638
			35.4434048894438	-23.750584742638
			35.4580026674049	-23.735986964677
			35.4726004453659	-23.735986964677
			35.487198223327	-23.735986964677
			35.5017960012881	-23.735986964677
			35.5163937792491	-23.735986964677
			35.5309915572102	-23.735986964677
			35.5455893351712	-23.735986964677
			35.5601871131323	-23.735986964677
			35.5747848910933	-23.735986964677
			35.5893826690544	-23.735986964677
			35.6039804470154	-23.735986964677
			35.6185782249765	-23.735986964677
			35.6331760029376	-23.735986964677
			35.6477737808986	-23.735986964677
			35.6623715588597	-23.735986964677
			35.6769693368207	-23.735986964677
			35.6915671147818	-23.7213891867159
			35.7061648927428	-23.7213891867159
			35.7207626707039	-23.7213891867159
			35.7353604486649	-23.7213891867159
			35.749958226626	-23.7213891867159
			35.7645560045871	-23.7213891867159
			35.7791537825481	-23.7213891867159
			35.7937515605092	-23.7213891867159
			35.8083493384702	-23.7067914087549
			35.8229471164313	-23.7067914087549
			35.8375448943923	-23.7067914087549
			35.8521426723534	-23.7067914087549
			35.8667404503145	-23.7067914087549
			35.8813382282755	-23.7067914087549
			35.8959360062366	-23.7067914087549
			35.9105337841976	-23.6921936307938
			35.9251315621587	-23.6921936307938
			35.9397293401197	-23.6921936307938
			35.9543271180808	-23.6921936307938
			35.9689248960418	-23.6921936307938
			35.9835226740029	-23.6921936307938
			35.998120451964	-23.6921936307938
			36.012718229925	-23.6921936307938
			36.0273160078861	-23.6921936307938
			36.0419137858471	-23.6921936307938
			36.0565115638082	-23.6921936307938
			36.0711093417692	-23.6921936307938
			36.0857071197303	-23.6921936307938
			36.1003048976914	-23.7067914087549
			36.1149026756524	-23.7067914087549
			36.1295004536135	-23.7067914087549
			36.1440982315745	-23.7067914087549
			36.1586960095356	-23.7213891867159
			36.1732937874966	-23.7213891867159
			36.1878915654577	-23.7213891867159
			36.2024893434187	-23.735986964677
			36.2170871213798	-23.735986964677
			36.2316848993409	-23.750584742638
			36.2462826773019	-23.750584742638
			36.260880455263	-23.7651825205991
			36.275478233224	-23.7651825205991
			36.2900760111851	-23.7797802985601
			36.3046737891461	-23.7797802985601
			36.3192715671072	-23.7943780765212
			36.3338693450682	-23.8089758544822
			36.3484671230293	-23.8089758544822
			36.3630649009904	-23.8235736324433
			36.3776626789514	-23.8235736324433
			36.3776626789514	-23.8381714104044
			36.3922604569125	-23.8381714104044
			36.3922604569125	-23.8527691883654
			36.4068582348735	-23.8527691883654
			36.4214560128346	-23.8673669663265
			36.4360537907956	-23.8819647442875
			36.4506515687567	-23.8965625222486
			36.4652493467177	-23.8965625222486
			36.4798471246788	-23.9111603002096
			36.4944449026399	-23.9111603002096
			36.5090426806009	-23.9257580781707
			36.5090426806009	-23.9403558561317
			36.523640458562	-23.9403558561317
			36.538238236523	-23.9549536340928
			36.5528360144841	-23.9549536340928
			36.5528360144841	-23.9695514120539
			36.5674337924451	-23.9695514120539
			36.5820315704062	-23.9841491900149
			36.5966293483673	-23.998746967976
			36.6112271263283	-24.013344745937
			36.6258249042894	-24.0279425238981
			36.6404226822504	-24.0425403018591
			36.6550204602115	-24.0571380798202
			36.6696182381725	-24.0717358577813
			36.6696182381725	-24.0863336357423
			36.6842160161336	-24.1009314137034
			36.6842160161336	-24.1155291916644
			36.6988137940946	-24.1155291916644
			36.6988137940946	-24.1301269696255
			36.7134115720557	-24.1447247475865
			36.7280093500168	-24.1593225255476
			36.7426071279778	-24.1739203035086
			36.7426071279778	-24.1885180814697
			36.7572049059389	-24.2031158594308
			36.7572049059389	-24.2177136373918
			36.7718026838999	-24.2323114153529
		</Outline3>
		<Outline4 type=matrix rownames=FALSE colnames=FALSE nrow=127 ncol=2 as.numeric=TRUE >
			36.7718026838999	-24.2323114153529
			36.786400461861	-24.2469091933139
			36.786400461861	-24.261506971275
			36.800998239822	-24.276104749236
			36.800998239822	-24.2907025271971
			36.8155960177831	-24.3053003051581
			36.8155960177831	-24.3198980831192
			36.8301937957441	-24.3344958610803
			36.8447915737052	-24.3344958610803
			36.8447915737052	-24.3490936390413
			36.8593893516663	-24.3636914170024
			36.8593893516663	-24.3782891949634
			36.8739871296273	-24.3928869729245
			36.8739871296273	-24.4074847508855
			36.8885849075884	-24.4220825288466
			36.8885849075884	-24.4366803068077
			36.9031826855494	-24.4366803068077
			36.9031826855494	-24.4512780847687
			36.9031826855494	-24.4658758627298
			36.9177804635105	-24.4804736406908
			36.9177804635105	-24.4950714186519
			36.9177804635105	-24.5096691966129
			36.9177804635105	-24.524266974574
			36.9323782414715	-24.538864752535
			36.9323782414715	-24.5534625304961
			36.9323782414715	-24.5680603084572
			36.9323782414715	-24.5826580864182
			36.9469760194326	-24.5972558643793
			36.9469760194326	-24.6118536423403
			36.9469760194326	-24.6264514203014
			36.9469760194326	-24.6410491982624
			36.9469760194326	-24.6556469762235
			36.9615737973936	-24.6702447541845
			36.9615737973936	-24.6848425321456
			36.9615737973936	-24.6994403101067
			36.9615737973936	-24.7140380880677
			36.9615737973936	-24.7286358660288
			36.9615737973936	-24.7432336439898
			36.9615737973936	-24.7578314219509
			36.9761715753547	-24.7724291999119
			36.9761715753547	-24.787026977873
			36.9761715753547	-24.801624755834
			36.9761715753547	-24.8162225337951
			36.9761715753547	-24.8308203117562
			36.9761715753547	-24.8454180897172
			36.9761715753547	-24.8600158676783
			36.9761715753547	-24.8746136456393
			36.9761715753547	-24.8892114236004
			36.9761715753547	-24.9038092015614
			36.9761715753547	-24.9184069795225
			36.9761715753547	-24.9330047574836
			36.9615737973936	-24.9476025354446
			36.9615737973936	-24.9622003134057
			36.9615737973936	-24.9767980913667
			36.9469760194326	-24.9913958693278
			36.9469760194326	-25.0059936472888
			36.9469760194326	-25.0205914252499
			36.9469760194326	-25.0351892032109
			36.9323782414715	-25.049786981172
			36.9323782414715	-25.0643847591331
			36.9177804635105	-25.0789825370941
			36.9177804635105	-25.0935803150552
			36.9177804635105	-25.1081780930162
			36.9031826855494	-25.1227758709773
			36.9031826855494	-25.1373736489383
			36.9031826855494	-25.1519714268994
			36.8885849075884	-25.1519714268994
			36.8885849075884	-25.1665692048604
			36.8885849075884	-25.1811669828215
			36.8739871296273	-25.1957647607826
			36.8593893516663	-25.2103625387436
			36.8593893516663	-25.2249603167047
			36.8447915737052	-25.2249603167047
			36.8301937957441	-25.2395580946657
			36.8155960177831	-25.2541558726268
			36.8155960177831	-25.2687536505878
			36.800998239822	-25.2833514285489
			36.786400461861	-25.2833514285489
			36.7718026838999	-25.29794920651
			36.7572049059389	-25.312546984471
			36.7426071279778	-25.3271447624321
			36.7280093500168	-25.3417425403931
			36.7134115720557	-25.3563403183542
			36.6988137940946	-25.3709380963152
			36.6842160161336	-25.3709380963152
			36.6842160161336	-25.3855358742763
			36.6696182381725	-25.4001336522373
			36.6550204602115	-25.4001336522373
			36.6404226822504	-25.4147314301984
			36.6258249042894	-25.4293292081595
			36.6112271263283	-25.4439269861205
			36.5966293483673	-25.4439269861205
			36.5820315704062	-25.4585247640816
			36.5674337924451	-25.4585247640816
			36.5528360144841	-25.4731225420426
			36.538238236523	-25.4731225420426
			36.523640458562	-25.4877203200037
			36.5090426806009	-25.5023180979647
			36.4944449026399	-25.5023180979647
			36.4798471246788	-25.5023180979647
			36.4798471246788	-25.5169158759258
			36.4652493467177	-25.5169158759258
			36.4506515687567	-25.5169158759258
			36.4506515687567	-25.5315136538868
			36.4360537907956	-25.5315136538868
			36.4214560128346	-25.5315136538868
			36.4214560128346	-25.5461114318479
			36.4068582348735	-25.5461114318479
			36.3922604569125	-25.560709209809
			36.3776626789514	-25.560709209809
			36.3630649009904	-25.57530698777
			36.3484671230293	-25.5899047657311
			36.3338693450682	-25.6045025436921
			36.3192715671072	-25.6045025436921
			36.3046737891461	-25.6191003216532
			36.2900760111851	-25.6336980996142
			36.275478233224	-25.6336980996142
			36.275478233224	-25.6482958775753
			36.260880455263	-25.6482958775753
			36.2462826773019	-25.6628936555364
			36.2462826773019	-25.6774914334974
			36.2316848993409	-25.6774914334974
			36.2170871213798	-25.6920892114585
			36.2024893434187	-25.7066869894195
			36.1878915654577	-25.7212847673806
			36.1732937874966	-25.7358825453416
			36.1586960095356	-25.7504803233027
		</Outline4>
	</curves.scaled>
	<ruler.points type=matrix rownames=TRUE colnames=FALSE nrow=2 ncol=2 as.numeric=TRUE >
		Ruler point 1	2884	2510
		Ruler point 2	2199	2517
	</ruler.points>
</shapes>

