<shapes type=list>
	<ruler.pixel type=vector names=FALSE length=1 as.numeric=TRUE >691.608270627239</ruler.pixel>
	<ruler.interval type=vector names=FALSE length=1 as.numeric=TRUE >10</ruler.interval>
	<scaling.units type=vector names=FALSE length=1 as.numeric=FALSE >mm</scaling.units>
	<scaling type=vector names=FALSE length=1 as.numeric=TRUE >0.0144590520742771</scaling>
	<landmarks.pixel type=matrix rownames=TRUE colnames=FALSE nrow=4 ncol=2 as.numeric=TRUE >
		Labial	2468	1601
		Posterior	2357	1547
		Lingual	2424	1443
		Anterior	2539	1499
	</landmarks.pixel>
	<landmarks.scaled type=matrix rownames=TRUE colnames=FALSE nrow=4 ncol=2 as.numeric=TRUE >
		Labial	35.684940519316	-23.1489423709177
		Posterior	34.0799857390712	-22.3681535589067
		Lingual	35.0487422280478	-20.8644121431819
		Anterior	36.7115332165897	-21.6741190593414
	</landmarks.scaled>
	<curves.control type=list>
		<Outline1 type=matrix rownames=FALSE colnames=FALSE nrow=21 ncol=2 as.numeric=TRUE >
			2468	1601
			2464	1605
			2459	1611
			2451	1619
			2444	1626
			2437	1631
			2429	1636
			2421	1640
			2413	1641
			2402	1641
			2392	1638
			2385	1633
			2378	1627
			2372	1621
			2368	1615
			2365	1609
			2362	1602
			2361	1591
			2360	1580
			2359	1566
			2357	1547
		</Outline1>
		<Outline2 type=matrix rownames=FALSE colnames=FALSE nrow=13 ncol=2 as.numeric=TRUE >
			2357	1547
			2357	1531
			2357	1516
			2357	1503
			2358	1488
			2360	1473
			2365	1463
			2371	1456
			2379	1451
			2387	1447
			2397	1446
			2409	1445
			2424	1443
		</Outline2>
		<Outline3 type=matrix rownames=FALSE colnames=FALSE nrow=17 ncol=2 as.numeric=TRUE >
			2424	1443
			2438	1442
			2448	1441
			2457	1440
			2470	1439
			2482	1438
			2492	1438
			2501	1439
			2508	1443
			2514	1448
			2518	1455
			2523	1464
			2527	1472
			2530	1478
			2534	1487
			2537	1493
			2539	1499
		</Outline3>
		<Outline4 type=matrix rownames=FALSE colnames=FALSE nrow=15 ncol=2 as.numeric=TRUE >
			2539	1499
			2542	1510
			2543	1520
			2542	1530
			2541	1540
			2537	1551
			2532	1562
			2524	1570
			2517	1577
			2506	1584
			2497	1589
			2488	1592
			2480	1594
			2474	1596
			2468	1601
		</Outline4>
	</curves.control>
	<curves.pixel type=list>
		<Outline1 type=matrix rownames=FALSE colnames=FALSE nrow=178 ncol=2 as.numeric=TRUE >
			2468	1601
			2467	1602
			2466	1603
			2465	1604
			2465	1605
			2464	1606
			2463	1607
			2462	1608
			2461	1609
			2460	1610
			2459	1611
			2458	1612
			2457	1613
			2456	1614
			2455	1615
			2454	1616
			2453	1617
			2452	1618
			2451	1619
			2450	1620
			2449	1621
			2448	1622
			2447	1623
			2446	1624
			2445	1625
			2444	1626
			2443	1627
			2442	1627
			2442	1628
			2441	1628
			2440	1629
			2439	1629
			2439	1630
			2438	1630
			2437	1631
			2436	1631
			2435	1632
			2434	1633
			2433	1634
			2432	1634
			2431	1635
			2430	1636
			2429	1636
			2428	1637
			2427	1637
			2426	1638
			2425	1638
			2424	1638
			2423	1639
			2422	1639
			2421	1639
			2420	1640
			2419	1640
			2418	1640
			2417	1640
			2416	1641
			2415	1641
			2414	1641
			2413	1641
			2412	1641
			2411	1641
			2410	1641
			2409	1641
			2408	1641
			2407	1641
			2406	1641
			2405	1641
			2404	1640
			2403	1640
			2402	1640
			2401	1640
			2400	1640
			2399	1640
			2398	1639
			2397	1639
			2396	1639
			2395	1639
			2394	1639
			2393	1638
			2392	1638
			2391	1638
			2391	1637
			2390	1637
			2389	1636
			2388	1635
			2387	1634
			2386	1633
			2385	1633
			2384	1632
			2383	1631
			2382	1630
			2381	1629
			2380	1629
			2379	1628
			2378	1627
			2377	1626
			2376	1625
			2376	1624
			2375	1624
			2374	1623
			2373	1622
			2373	1621
			2372	1620
			2371	1620
			2371	1619
			2370	1618
			2369	1617
			2369	1616
			2368	1615
			2367	1614
			2367	1613
			2366	1612
			2366	1611
			2365	1610
			2365	1609
			2365	1608
			2364	1608
			2364	1607
			2364	1606
			2363	1605
			2363	1604
			2362	1603
			2362	1602
			2362	1601
			2362	1600
			2362	1599
			2362	1598
			2362	1597
			2361	1596
			2361	1595
			2361	1594
			2361	1593
			2361	1592
			2361	1591
			2361	1590
			2361	1589
			2361	1588
			2361	1587
			2361	1586
			2360	1585
			2360	1584
			2360	1583
			2360	1582
			2360	1581
			2360	1580
			2360	1579
			2360	1578
			2360	1577
			2360	1576
			2360	1575
			2360	1574
			2359	1573
			2359	1572
			2359	1571
			2359	1570
			2359	1569
			2359	1568
			2359	1567
			2359	1566
			2359	1565
			2359	1564
			2359	1563
			2358	1562
			2358	1561
			2358	1560
			2358	1559
			2358	1558
			2358	1557
			2358	1556
			2358	1555
			2358	1554
			2358	1553
			2357	1552
			2357	1551
			2357	1550
			2357	1549
			2357	1548
			2357	1547
		</Outline1>
		<Outline2 type=matrix rownames=FALSE colnames=FALSE nrow=149 ncol=2 as.numeric=TRUE >
			2357	1547
			2357	1546
			2357	1545
			2357	1544
			2357	1543
			2357	1542
			2357	1541
			2357	1540
			2357	1539
			2357	1538
			2357	1537
			2357	1536
			2357	1535
			2357	1534
			2357	1533
			2357	1532
			2357	1531
			2357	1530
			2357	1529
			2357	1528
			2357	1527
			2357	1526
			2357	1525
			2357	1524
			2357	1523
			2357	1522
			2357	1521
			2357	1520
			2357	1519
			2357	1518
			2357	1517
			2357	1516
			2357	1515
			2357	1514
			2357	1513
			2357	1512
			2357	1511
			2357	1510
			2357	1509
			2357	1508
			2357	1507
			2357	1506
			2357	1505
			2357	1504
			2357	1503
			2357	1502
			2357	1501
			2357	1500
			2357	1499
			2357	1498
			2357	1497
			2358	1496
			2358	1495
			2358	1494
			2358	1493
			2358	1492
			2358	1491
			2358	1490
			2358	1489
			2358	1488
			2358	1487
			2358	1486
			2358	1485
			2359	1484
			2359	1483
			2359	1482
			2359	1481
			2359	1480
			2359	1479
			2360	1479
			2360	1478
			2360	1477
			2360	1476
			2360	1475
			2361	1475
			2361	1474
			2361	1473
			2361	1472
			2362	1472
			2362	1471
			2362	1470
			2362	1469
			2363	1469
			2363	1468
			2363	1467
			2364	1466
			2364	1465
			2365	1464
			2365	1463
			2366	1462
			2367	1461
			2368	1460
			2369	1459
			2370	1458
			2371	1457
			2372	1456
			2373	1455
			2374	1455
			2375	1454
			2376	1453
			2377	1452
			2378	1451
			2379	1451
			2380	1451
			2381	1450
			2382	1450
			2383	1449
			2384	1449
			2385	1449
			2386	1448
			2387	1448
			2388	1448
			2389	1447
			2390	1447
			2391	1447
			2392	1447
			2393	1447
			2394	1446
			2395	1446
			2396	1446
			2397	1446
			2398	1446
			2399	1446
			2400	1446
			2401	1446
			2402	1446
			2403	1445
			2404	1445
			2405	1445
			2406	1445
			2407	1445
			2408	1445
			2409	1445
			2410	1445
			2411	1445
			2412	1444
			2413	1444
			2414	1444
			2415	1444
			2416	1444
			2417	1444
			2418	1444
			2419	1444
			2420	1444
			2420	1443
			2421	1443
			2422	1443
			2423	1443
			2424	1443
		</Outline2>
		<Outline3 type=matrix rownames=FALSE colnames=FALSE nrow=149 ncol=2 as.numeric=TRUE >
			2424	1443
			2425	1443
			2426	1443
			2427	1443
			2428	1443
			2429	1443
			2430	1443
			2431	1443
			2431	1442
			2432	1442
			2433	1442
			2434	1442
			2435	1442
			2436	1442
			2437	1442
			2438	1442
			2439	1442
			2440	1442
			2441	1442
			2442	1442
			2443	1441
			2444	1441
			2445	1441
			2446	1441
			2447	1441
			2448	1441
			2449	1441
			2450	1441
			2451	1441
			2452	1441
			2453	1440
			2454	1440
			2455	1440
			2456	1440
			2457	1440
			2458	1440
			2459	1440
			2460	1440
			2461	1440
			2462	1440
			2463	1440
			2464	1440
			2465	1439
			2466	1439
			2467	1439
			2468	1439
			2469	1439
			2470	1439
			2471	1439
			2472	1439
			2473	1439
			2474	1439
			2475	1439
			2476	1439
			2477	1438
			2478	1438
			2479	1438
			2480	1438
			2481	1438
			2482	1438
			2483	1438
			2484	1438
			2485	1438
			2486	1438
			2487	1438
			2488	1438
			2489	1438
			2490	1438
			2491	1438
			2492	1438
			2493	1438
			2494	1438
			2495	1438
			2496	1439
			2497	1439
			2498	1439
			2499	1439
			2500	1440
			2501	1440
			2502	1440
			2503	1441
			2504	1441
			2505	1441
			2506	1442
			2507	1442
			2507	1443
			2508	1443
			2509	1444
			2510	1444
			2510	1445
			2511	1446
			2512	1446
			2512	1447
			2513	1448
			2514	1449
			2515	1450
			2515	1451
			2516	1452
			2517	1453
			2517	1454
			2518	1455
			2519	1456
			2519	1457
			2520	1458
			2520	1459
			2520	1460
			2521	1460
			2521	1461
			2522	1462
			2522	1463
			2523	1464
			2524	1465
			2524	1466
			2525	1467
			2525	1468
			2525	1469
			2526	1470
			2526	1471
			2527	1471
			2527	1472
			2527	1473
			2528	1473
			2528	1474
			2528	1475
			2529	1475
			2529	1476
			2529	1477
			2530	1478
			2530	1479
			2531	1480
			2531	1481
			2532	1482
			2532	1483
			2533	1484
			2533	1485
			2534	1486
			2534	1487
			2534	1488
			2535	1489
			2536	1490
			2536	1491
			2536	1492
			2537	1493
			2537	1494
			2537	1495
			2538	1496
			2538	1497
			2539	1498
			2539	1499
		</Outline3>
		<Outline4 type=matrix rownames=FALSE colnames=FALSE nrow=133 ncol=2 as.numeric=TRUE >
			2539	1499
			2539	1500
			2540	1501
			2540	1502
			2540	1503
			2540	1504
			2541	1505
			2541	1506
			2541	1507
			2541	1508
			2541	1509
			2542	1510
			2542	1511
			2542	1512
			2542	1513
			2542	1514
			2542	1515
			2543	1516
			2543	1517
			2543	1518
			2543	1519
			2543	1520
			2543	1521
			2543	1522
			2543	1523
			2543	1524
			2542	1525
			2542	1526
			2542	1527
			2542	1528
			2542	1529
			2542	1530
			2542	1531
			2542	1532
			2542	1533
			2542	1534
			2541	1535
			2541	1536
			2541	1537
			2541	1538
			2541	1539
			2541	1540
			2540	1541
			2540	1542
			2540	1543
			2540	1544
			2539	1544
			2539	1545
			2539	1546
			2538	1547
			2538	1548
			2537	1549
			2537	1550
			2537	1551
			2536	1552
			2536	1553
			2536	1554
			2535	1554
			2535	1555
			2535	1556
			2534	1557
			2534	1558
			2534	1559
			2533	1559
			2533	1560
			2532	1561
			2532	1562
			2531	1563
			2530	1564
			2529	1565
			2528	1566
			2527	1567
			2526	1568
			2525	1569
			2524	1570
			2523	1571
			2522	1572
			2521	1573
			2520	1574
			2519	1575
			2518	1576
			2517	1577
			2516	1578
			2515	1578
			2514	1579
			2513	1580
			2512	1580
			2511	1581
			2510	1581
			2510	1582
			2509	1582
			2508	1583
			2507	1583
			2506	1584
			2505	1584
			2504	1585
			2503	1586
			2502	1586
			2501	1587
			2500	1587
			2499	1588
			2498	1589
			2497	1589
			2496	1589
			2495	1590
			2494	1590
			2493	1590
			2492	1591
			2491	1591
			2490	1591
			2489	1592
			2488	1592
			2487	1592
			2486	1592
			2485	1593
			2484	1593
			2483	1593
			2482	1593
			2481	1594
			2480	1594
			2479	1594
			2478	1595
			2477	1595
			2476	1596
			2475	1596
			2474	1597
			2473	1597
			2473	1598
			2472	1598
			2471	1599
			2470	1599
			2469	1600
			2468	1601
		</Outline4>
	</curves.pixel>
	<curves.scaled type=list>
		<Outline1 type=matrix rownames=FALSE colnames=FALSE nrow=178 ncol=2 as.numeric=TRUE >
			35.684940519316	-23.1489423709177
			35.6704814672417	-23.163401422992
			35.6560224151674	-23.1778604750663
			35.6415633630931	-23.1923195271405
			35.6415633630931	-23.2067785792148
			35.6271043110189	-23.2212376312891
			35.6126452589446	-23.2356966833634
			35.5981862068703	-23.2501557354376
			35.583727154796	-23.2646147875119
			35.5692681027218	-23.2790738395862
			35.5548090506475	-23.2935328916605
			35.5403499985732	-23.3079919437347
			35.5258909464989	-23.322450995809
			35.5114318944246	-23.3369100478833
			35.4969728423504	-23.3513690999576
			35.4825137902761	-23.3658281520319
			35.4680547382018	-23.3802872041061
			35.4535956861275	-23.3947462561804
			35.4391366340533	-23.4092053082547
			35.424677581979	-23.423664360329
			35.4102185299047	-23.4381234124032
			35.3957594778304	-23.4525824644775
			35.3813004257562	-23.4670415165518
			35.3668413736819	-23.4815005686261
			35.3523823216076	-23.4959596207003
			35.3379232695333	-23.5104186727746
			35.323464217459	-23.5248777248489
			35.3090051653848	-23.5248777248489
			35.3090051653848	-23.5393367769232
			35.2945461133105	-23.5393367769232
			35.2800870612362	-23.5537958289975
			35.2656280091619	-23.5537958289975
			35.2656280091619	-23.5682548810717
			35.2511689570877	-23.5682548810717
			35.2367099050134	-23.582713933146
			35.2222508529391	-23.582713933146
			35.2077918008648	-23.5971729852203
			35.1933327487906	-23.6116320372946
			35.1788736967163	-23.6260910893688
			35.164414644642	-23.6260910893688
			35.1499555925677	-23.6405501414431
			35.1354965404934	-23.6550091935174
			35.1210374884192	-23.6550091935174
			35.1065784363449	-23.6694682455917
			35.0921193842706	-23.6694682455917
			35.0776603321963	-23.6839272976659
			35.0632012801221	-23.6839272976659
			35.0487422280478	-23.6839272976659
			35.0342831759735	-23.6983863497402
			35.0198241238992	-23.6983863497402
			35.0053650718249	-23.6983863497402
			34.9909060197507	-23.7128454018145
			34.9764469676764	-23.7128454018145
			34.9619879156021	-23.7128454018145
			34.9475288635278	-23.7128454018145
			34.9330698114536	-23.7273044538888
			34.9186107593793	-23.7273044538888
			34.904151707305	-23.7273044538888
			34.8896926552307	-23.7273044538888
			34.8752336031565	-23.7273044538888
			34.8607745510822	-23.7273044538888
			34.8463154990079	-23.7273044538888
			34.8318564469336	-23.7273044538888
			34.8173973948593	-23.7273044538888
			34.8029383427851	-23.7273044538888
			34.7884792907108	-23.7273044538888
			34.7740202386365	-23.7273044538888
			34.7595611865622	-23.7128454018145
			34.745102134488	-23.7128454018145
			34.7306430824137	-23.7128454018145
			34.7161840303394	-23.7128454018145
			34.7017249782651	-23.7128454018145
			34.6872659261909	-23.7128454018145
			34.6728068741166	-23.6983863497402
			34.6583478220423	-23.6983863497402
			34.643888769968	-23.6983863497402
			34.6294297178937	-23.6983863497402
			34.6149706658195	-23.6983863497402
			34.6005116137452	-23.6839272976659
			34.5860525616709	-23.6839272976659
			34.5715935095966	-23.6839272976659
			34.5715935095966	-23.6694682455917
			34.5571344575224	-23.6694682455917
			34.5426754054481	-23.6550091935174
			34.5282163533738	-23.6405501414431
			34.5137573012995	-23.6260910893688
			34.4992982492252	-23.6116320372946
			34.484839197151	-23.6116320372946
			34.4703801450767	-23.5971729852203
			34.4559210930024	-23.582713933146
			34.4414620409281	-23.5682548810717
			34.4270029888539	-23.5537958289975
			34.4125439367796	-23.5537958289975
			34.3980848847053	-23.5393367769232
			34.383625832631	-23.5248777248489
			34.3691667805568	-23.5104186727746
			34.3547077284825	-23.4959596207003
			34.3547077284825	-23.4815005686261
			34.3402486764082	-23.4815005686261
			34.3257896243339	-23.4670415165518
			34.3113305722596	-23.4525824644775
			34.3113305722596	-23.4381234124032
			34.2968715201854	-23.423664360329
			34.2824124681111	-23.423664360329
			34.2824124681111	-23.4092053082547
			34.2679534160368	-23.3947462561804
			34.2534943639625	-23.3802872041061
			34.2534943639625	-23.3658281520319
			34.2390353118883	-23.3513690999576
			34.224576259814	-23.3369100478833
			34.224576259814	-23.322450995809
			34.2101172077397	-23.3079919437347
			34.2101172077397	-23.2935328916605
			34.1956581556654	-23.2790738395862
			34.1956581556654	-23.2646147875119
			34.1956581556654	-23.2501557354376
			34.1811991035911	-23.2501557354376
			34.1811991035911	-23.2356966833634
			34.1811991035911	-23.2212376312891
			34.1667400515169	-23.2067785792148
			34.1667400515169	-23.1923195271405
			34.1522809994426	-23.1778604750663
			34.1522809994426	-23.163401422992
			34.1522809994426	-23.1489423709177
			34.1522809994426	-23.1344833188434
			34.1522809994426	-23.1200242667691
			34.1522809994426	-23.1055652146949
			34.1522809994426	-23.0911061626206
			34.1378219473683	-23.0766471105463
			34.1378219473683	-23.062188058472
			34.1378219473683	-23.0477290063978
			34.1378219473683	-23.0332699543235
			34.1378219473683	-23.0188109022492
			34.1378219473683	-23.0043518501749
			34.1378219473683	-22.9898927981006
			34.1378219473683	-22.9754337460264
			34.1378219473683	-22.9609746939521
			34.1378219473683	-22.9465156418778
			34.1378219473683	-22.9320565898035
			34.123362895294	-22.9175975377293
			34.123362895294	-22.903138485655
			34.123362895294	-22.8886794335807
			34.123362895294	-22.8742203815064
			34.123362895294	-22.8597613294322
			34.123362895294	-22.8453022773579
			34.123362895294	-22.8308432252836
			34.123362895294	-22.8163841732093
			34.123362895294	-22.801925121135
			34.123362895294	-22.7874660690608
			34.123362895294	-22.7730070169865
			34.123362895294	-22.7585479649122
			34.1089038432198	-22.7440889128379
			34.1089038432198	-22.7296298607637
			34.1089038432198	-22.7151708086894
			34.1089038432198	-22.7007117566151
			34.1089038432198	-22.6862527045408
			34.1089038432198	-22.6717936524666
			34.1089038432198	-22.6573346003923
			34.1089038432198	-22.642875548318
			34.1089038432198	-22.6284164962437
			34.1089038432198	-22.6139574441694
			34.1089038432198	-22.5994983920952
			34.0944447911455	-22.5850393400209
			34.0944447911455	-22.5705802879466
			34.0944447911455	-22.5561212358723
			34.0944447911455	-22.5416621837981
			34.0944447911455	-22.5272031317238
			34.0944447911455	-22.5127440796495
			34.0944447911455	-22.4982850275752
			34.0944447911455	-22.4838259755009
			34.0944447911455	-22.4693669234267
			34.0944447911455	-22.4549078713524
			34.0799857390712	-22.4404488192781
			34.0799857390712	-22.4259897672038
			34.0799857390712	-22.4115307151296
			34.0799857390712	-22.3970716630553
			34.0799857390712	-22.382612610981
			34.0799857390712	-22.3681535589067
		</Outline1>
		<Outline2 type=matrix rownames=FALSE colnames=FALSE nrow=149 ncol=2 as.numeric=TRUE >
			34.0799857390712	-22.3681535589067
			34.0799857390712	-22.3536945068325
			34.0799857390712	-22.3392354547582
			34.0799857390712	-22.3247764026839
			34.0799857390712	-22.3103173506096
			34.0799857390712	-22.2958582985353
			34.0799857390712	-22.2813992464611
			34.0799857390712	-22.2669401943868
			34.0799857390712	-22.2524811423125
			34.0799857390712	-22.2380220902382
			34.0799857390712	-22.223563038164
			34.0799857390712	-22.2091039860897
			34.0799857390712	-22.1946449340154
			34.0799857390712	-22.1801858819411
			34.0799857390712	-22.1657268298669
			34.0799857390712	-22.1512677777926
			34.0799857390712	-22.1368087257183
			34.0799857390712	-22.122349673644
			34.0799857390712	-22.1078906215697
			34.0799857390712	-22.0934315694955
			34.0799857390712	-22.0789725174212
			34.0799857390712	-22.0645134653469
			34.0799857390712	-22.0500544132726
			34.0799857390712	-22.0355953611984
			34.0799857390712	-22.0211363091241
			34.0799857390712	-22.0066772570498
			34.0799857390712	-21.9922182049755
			34.0799857390712	-21.9777591529012
			34.0799857390712	-21.963300100827
			34.0799857390712	-21.9488410487527
			34.0799857390712	-21.9343819966784
			34.0799857390712	-21.9199229446041
			34.0799857390712	-21.9054638925299
			34.0799857390712	-21.8910048404556
			34.0799857390712	-21.8765457883813
			34.0799857390712	-21.862086736307
			34.0799857390712	-21.8476276842328
			34.0799857390712	-21.8331686321585
			34.0799857390712	-21.8187095800842
			34.0799857390712	-21.8042505280099
			34.0799857390712	-21.7897914759356
			34.0799857390712	-21.7753324238614
			34.0799857390712	-21.7608733717871
			34.0799857390712	-21.7464143197128
			34.0799857390712	-21.7319552676385
			34.0799857390712	-21.7174962155643
			34.0799857390712	-21.70303716349
			34.0799857390712	-21.6885781114157
			34.0799857390712	-21.6741190593414
			34.0799857390712	-21.6596600072671
			34.0799857390712	-21.6452009551929
			34.0944447911455	-21.6307419031186
			34.0944447911455	-21.6162828510443
			34.0944447911455	-21.60182379897
			34.0944447911455	-21.5873647468958
			34.0944447911455	-21.5729056948215
			34.0944447911455	-21.5584466427472
			34.0944447911455	-21.5439875906729
			34.0944447911455	-21.5295285385987
			34.0944447911455	-21.5150694865244
			34.0944447911455	-21.5006104344501
			34.0944447911455	-21.4861513823758
			34.0944447911455	-21.4716923303015
			34.1089038432198	-21.4572332782273
			34.1089038432198	-21.442774226153
			34.1089038432198	-21.4283151740787
			34.1089038432198	-21.4138561220044
			34.1089038432198	-21.3993970699302
			34.1089038432198	-21.3849380178559
			34.123362895294	-21.3849380178559
			34.123362895294	-21.3704789657816
			34.123362895294	-21.3560199137073
			34.123362895294	-21.3415608616331
			34.123362895294	-21.3271018095588
			34.1378219473683	-21.3271018095588
			34.1378219473683	-21.3126427574845
			34.1378219473683	-21.2981837054102
			34.1378219473683	-21.2837246533359
			34.1522809994426	-21.2837246533359
			34.1522809994426	-21.2692656012617
			34.1522809994426	-21.2548065491874
			34.1522809994426	-21.2403474971131
			34.1667400515169	-21.2403474971131
			34.1667400515169	-21.2258884450388
			34.1667400515169	-21.2114293929646
			34.1811991035911	-21.1969703408903
			34.1811991035911	-21.182511288816
			34.1956581556654	-21.1680522367417
			34.1956581556654	-21.1535931846675
			34.2101172077397	-21.1391341325932
			34.224576259814	-21.1246750805189
			34.2390353118883	-21.1102160284446
			34.2534943639625	-21.0957569763703
			34.2679534160368	-21.0812979242961
			34.2824124681111	-21.0668388722218
			34.2968715201854	-21.0523798201475
			34.3113305722596	-21.0379207680732
			34.3257896243339	-21.0379207680732
			34.3402486764082	-21.023461715999
			34.3547077284825	-21.0090026639247
			34.3691667805568	-20.9945436118504
			34.383625832631	-20.9800845597761
			34.3980848847053	-20.9800845597761
			34.4125439367796	-20.9800845597761
			34.4270029888539	-20.9656255077018
			34.4414620409281	-20.9656255077018
			34.4559210930024	-20.9511664556276
			34.4703801450767	-20.9511664556276
			34.484839197151	-20.9511664556276
			34.4992982492252	-20.9367074035533
			34.5137573012995	-20.9367074035533
			34.5282163533738	-20.9367074035533
			34.5426754054481	-20.922248351479
			34.5571344575224	-20.922248351479
			34.5715935095966	-20.922248351479
			34.5860525616709	-20.922248351479
			34.6005116137452	-20.922248351479
			34.6149706658195	-20.9077892994047
			34.6294297178937	-20.9077892994047
			34.643888769968	-20.9077892994047
			34.6583478220423	-20.9077892994047
			34.6728068741166	-20.9077892994047
			34.6872659261909	-20.9077892994047
			34.7017249782651	-20.9077892994047
			34.7161840303394	-20.9077892994047
			34.7306430824137	-20.9077892994047
			34.745102134488	-20.8933302473305
			34.7595611865622	-20.8933302473305
			34.7740202386365	-20.8933302473305
			34.7884792907108	-20.8933302473305
			34.8029383427851	-20.8933302473305
			34.8173973948593	-20.8933302473305
			34.8318564469336	-20.8933302473305
			34.8463154990079	-20.8933302473305
			34.8607745510822	-20.8933302473305
			34.8752336031565	-20.8788711952562
			34.8896926552307	-20.8788711952562
			34.904151707305	-20.8788711952562
			34.9186107593793	-20.8788711952562
			34.9330698114536	-20.8788711952562
			34.9475288635278	-20.8788711952562
			34.9619879156021	-20.8788711952562
			34.9764469676764	-20.8788711952562
			34.9909060197507	-20.8788711952562
			34.9909060197507	-20.8644121431819
			35.0053650718249	-20.8644121431819
			35.0198241238992	-20.8644121431819
			35.0342831759735	-20.8644121431819
			35.0487422280478	-20.8644121431819
		</Outline2>
		<Outline3 type=matrix rownames=FALSE colnames=FALSE nrow=149 ncol=2 as.numeric=TRUE >
			35.0487422280478	-20.8644121431819
			35.0632012801221	-20.8644121431819
			35.0776603321963	-20.8644121431819
			35.0921193842706	-20.8644121431819
			35.1065784363449	-20.8644121431819
			35.1210374884192	-20.8644121431819
			35.1354965404934	-20.8644121431819
			35.1499555925677	-20.8644121431819
			35.1499555925677	-20.8499530911076
			35.164414644642	-20.8499530911076
			35.1788736967163	-20.8499530911076
			35.1933327487906	-20.8499530911076
			35.2077918008648	-20.8499530911076
			35.2222508529391	-20.8499530911076
			35.2367099050134	-20.8499530911076
			35.2511689570877	-20.8499530911076
			35.2656280091619	-20.8499530911076
			35.2800870612362	-20.8499530911076
			35.2945461133105	-20.8499530911076
			35.3090051653848	-20.8499530911076
			35.323464217459	-20.8354940390334
			35.3379232695333	-20.8354940390334
			35.3523823216076	-20.8354940390334
			35.3668413736819	-20.8354940390334
			35.3813004257562	-20.8354940390334
			35.3957594778304	-20.8354940390334
			35.4102185299047	-20.8354940390334
			35.424677581979	-20.8354940390334
			35.4391366340533	-20.8354940390334
			35.4535956861275	-20.8354940390334
			35.4680547382018	-20.8210349869591
			35.4825137902761	-20.8210349869591
			35.4969728423504	-20.8210349869591
			35.5114318944246	-20.8210349869591
			35.5258909464989	-20.8210349869591
			35.5403499985732	-20.8210349869591
			35.5548090506475	-20.8210349869591
			35.5692681027218	-20.8210349869591
			35.583727154796	-20.8210349869591
			35.5981862068703	-20.8210349869591
			35.6126452589446	-20.8210349869591
			35.6271043110189	-20.8210349869591
			35.6415633630931	-20.8065759348848
			35.6560224151674	-20.8065759348848
			35.6704814672417	-20.8065759348848
			35.684940519316	-20.8065759348848
			35.6993995713903	-20.8065759348848
			35.7138586234645	-20.8065759348848
			35.7283176755388	-20.8065759348848
			35.7427767276131	-20.8065759348848
			35.7572357796874	-20.8065759348848
			35.7716948317616	-20.8065759348848
			35.7861538838359	-20.8065759348848
			35.8006129359102	-20.8065759348848
			35.8150719879845	-20.7921168828105
			35.8295310400587	-20.7921168828105
			35.843990092133	-20.7921168828105
			35.8584491442073	-20.7921168828105
			35.8729081962816	-20.7921168828105
			35.8873672483559	-20.7921168828105
			35.9018263004301	-20.7921168828105
			35.9162853525044	-20.7921168828105
			35.9307444045787	-20.7921168828105
			35.945203456653	-20.7921168828105
			35.9596625087272	-20.7921168828105
			35.9741215608015	-20.7921168828105
			35.9885806128758	-20.7921168828105
			36.0030396649501	-20.7921168828105
			36.0174987170243	-20.7921168828105
			36.0319577690986	-20.7921168828105
			36.0464168211729	-20.7921168828105
			36.0608758732472	-20.7921168828105
			36.0753349253215	-20.7921168828105
			36.0897939773957	-20.8065759348848
			36.10425302947	-20.8065759348848
			36.1187120815443	-20.8065759348848
			36.1331711336186	-20.8065759348848
			36.1476301856928	-20.8210349869591
			36.1620892377671	-20.8210349869591
			36.1765482898414	-20.8210349869591
			36.1910073419157	-20.8354940390334
			36.20546639399	-20.8354940390334
			36.2199254460642	-20.8354940390334
			36.2343844981385	-20.8499530911076
			36.2488435502128	-20.8499530911076
			36.2488435502128	-20.8644121431819
			36.2633026022871	-20.8644121431819
			36.2777616543613	-20.8788711952562
			36.2922207064356	-20.8788711952562
			36.2922207064356	-20.8933302473305
			36.3066797585099	-20.9077892994047
			36.3211388105842	-20.9077892994047
			36.3211388105842	-20.922248351479
			36.3355978626584	-20.9367074035533
			36.3500569147327	-20.9511664556276
			36.364515966807	-20.9656255077018
			36.364515966807	-20.9800845597761
			36.3789750188813	-20.9945436118504
			36.3934340709555	-21.0090026639247
			36.3934340709555	-21.023461715999
			36.4078931230298	-21.0379207680732
			36.4223521751041	-21.0523798201475
			36.4223521751041	-21.0668388722218
			36.4368112271784	-21.0812979242961
			36.4368112271784	-21.0957569763703
			36.4368112271784	-21.1102160284446
			36.4512702792527	-21.1102160284446
			36.4512702792527	-21.1246750805189
			36.4657293313269	-21.1391341325932
			36.4657293313269	-21.1535931846675
			36.4801883834012	-21.1680522367417
			36.4946474354755	-21.182511288816
			36.4946474354755	-21.1969703408903
			36.5091064875498	-21.2114293929646
			36.5091064875498	-21.2258884450388
			36.5091064875498	-21.2403474971131
			36.523565539624	-21.2548065491874
			36.523565539624	-21.2692656012617
			36.5380245916983	-21.2692656012617
			36.5380245916983	-21.2837246533359
			36.5380245916983	-21.2981837054102
			36.5524836437726	-21.2981837054102
			36.5524836437726	-21.3126427574845
			36.5524836437726	-21.3271018095588
			36.5669426958469	-21.3271018095588
			36.5669426958469	-21.3415608616331
			36.5669426958469	-21.3560199137073
			36.5814017479212	-21.3704789657816
			36.5814017479212	-21.3849380178559
			36.5958607999954	-21.3993970699302
			36.5958607999954	-21.4138561220044
			36.6103198520697	-21.4283151740787
			36.6103198520697	-21.442774226153
			36.624778904144	-21.4572332782273
			36.624778904144	-21.4716923303015
			36.6392379562183	-21.4861513823758
			36.6392379562183	-21.5006104344501
			36.6392379562183	-21.5150694865244
			36.6536970082925	-21.5295285385987
			36.6681560603668	-21.5439875906729
			36.6681560603668	-21.5584466427472
			36.6681560603668	-21.5729056948215
			36.6826151124411	-21.5873647468958
			36.6826151124411	-21.60182379897
			36.6826151124411	-21.6162828510443
			36.6970741645154	-21.6307419031186
			36.6970741645154	-21.6452009551929
			36.7115332165897	-21.6596600072671
			36.7115332165897	-21.6741190593414
		</Outline3>
		<Outline4 type=matrix rownames=FALSE colnames=FALSE nrow=133 ncol=2 as.numeric=TRUE >
			36.7115332165897	-21.6741190593414
			36.7115332165897	-21.6885781114157
			36.7259922686639	-21.70303716349
			36.7259922686639	-21.7174962155643
			36.7259922686639	-21.7319552676385
			36.7259922686639	-21.7464143197128
			36.7404513207382	-21.7608733717871
			36.7404513207382	-21.7753324238614
			36.7404513207382	-21.7897914759356
			36.7404513207382	-21.8042505280099
			36.7404513207382	-21.8187095800842
			36.7549103728125	-21.8331686321585
			36.7549103728125	-21.8476276842328
			36.7549103728125	-21.862086736307
			36.7549103728125	-21.8765457883813
			36.7549103728125	-21.8910048404556
			36.7549103728125	-21.9054638925299
			36.7693694248868	-21.9199229446041
			36.7693694248868	-21.9343819966784
			36.7693694248868	-21.9488410487527
			36.7693694248868	-21.963300100827
			36.7693694248868	-21.9777591529012
			36.7693694248868	-21.9922182049755
			36.7693694248868	-22.0066772570498
			36.7693694248868	-22.0211363091241
			36.7693694248868	-22.0355953611984
			36.7549103728125	-22.0500544132726
			36.7549103728125	-22.0645134653469
			36.7549103728125	-22.0789725174212
			36.7549103728125	-22.0934315694955
			36.7549103728125	-22.1078906215697
			36.7549103728125	-22.122349673644
			36.7549103728125	-22.1368087257183
			36.7549103728125	-22.1512677777926
			36.7549103728125	-22.1657268298669
			36.7549103728125	-22.1801858819411
			36.7404513207382	-22.1946449340154
			36.7404513207382	-22.2091039860897
			36.7404513207382	-22.223563038164
			36.7404513207382	-22.2380220902382
			36.7404513207382	-22.2524811423125
			36.7404513207382	-22.2669401943868
			36.7259922686639	-22.2813992464611
			36.7259922686639	-22.2958582985353
			36.7259922686639	-22.3103173506096
			36.7259922686639	-22.3247764026839
			36.7115332165897	-22.3247764026839
			36.7115332165897	-22.3392354547582
			36.7115332165897	-22.3536945068325
			36.6970741645154	-22.3681535589067
			36.6970741645154	-22.382612610981
			36.6826151124411	-22.3970716630553
			36.6826151124411	-22.4115307151296
			36.6826151124411	-22.4259897672038
			36.6681560603668	-22.4404488192781
			36.6681560603668	-22.4549078713524
			36.6681560603668	-22.4693669234267
			36.6536970082925	-22.4693669234267
			36.6536970082925	-22.4838259755009
			36.6536970082925	-22.4982850275752
			36.6392379562183	-22.5127440796495
			36.6392379562183	-22.5272031317238
			36.6392379562183	-22.5416621837981
			36.624778904144	-22.5416621837981
			36.624778904144	-22.5561212358723
			36.6103198520697	-22.5705802879466
			36.6103198520697	-22.5850393400209
			36.5958607999954	-22.5994983920952
			36.5814017479212	-22.6139574441694
			36.5669426958469	-22.6284164962437
			36.5524836437726	-22.642875548318
			36.5380245916983	-22.6573346003923
			36.523565539624	-22.6717936524666
			36.5091064875498	-22.6862527045408
			36.4946474354755	-22.7007117566151
			36.4801883834012	-22.7151708086894
			36.4657293313269	-22.7296298607637
			36.4512702792527	-22.7440889128379
			36.4368112271784	-22.7585479649122
			36.4223521751041	-22.7730070169865
			36.4078931230298	-22.7874660690608
			36.3934340709555	-22.801925121135
			36.3789750188813	-22.8163841732093
			36.364515966807	-22.8163841732093
			36.3500569147327	-22.8308432252836
			36.3355978626584	-22.8453022773579
			36.3211388105842	-22.8453022773579
			36.3066797585099	-22.8597613294322
			36.2922207064356	-22.8597613294322
			36.2922207064356	-22.8742203815064
			36.2777616543613	-22.8742203815064
			36.2633026022871	-22.8886794335807
			36.2488435502128	-22.8886794335807
			36.2343844981385	-22.903138485655
			36.2199254460642	-22.903138485655
			36.20546639399	-22.9175975377293
			36.1910073419157	-22.9320565898035
			36.1765482898414	-22.9320565898035
			36.1620892377671	-22.9465156418778
			36.1476301856928	-22.9465156418778
			36.1331711336186	-22.9609746939521
			36.1187120815443	-22.9754337460264
			36.10425302947	-22.9754337460264
			36.0897939773957	-22.9754337460264
			36.0753349253215	-22.9898927981006
			36.0608758732472	-22.9898927981006
			36.0464168211729	-22.9898927981006
			36.0319577690986	-23.0043518501749
			36.0174987170243	-23.0043518501749
			36.0030396649501	-23.0043518501749
			35.9885806128758	-23.0188109022492
			35.9741215608015	-23.0188109022492
			35.9596625087272	-23.0188109022492
			35.945203456653	-23.0188109022492
			35.9307444045787	-23.0332699543235
			35.9162853525044	-23.0332699543235
			35.9018263004301	-23.0332699543235
			35.8873672483559	-23.0332699543235
			35.8729081962816	-23.0477290063978
			35.8584491442073	-23.0477290063978
			35.843990092133	-23.0477290063978
			35.8295310400587	-23.062188058472
			35.8150719879845	-23.062188058472
			35.8006129359102	-23.0766471105463
			35.7861538838359	-23.0766471105463
			35.7716948317616	-23.0911061626206
			35.7572357796874	-23.0911061626206
			35.7572357796874	-23.1055652146949
			35.7427767276131	-23.1055652146949
			35.7283176755388	-23.1200242667691
			35.7138586234645	-23.1200242667691
			35.6993995713903	-23.1344833188434
			35.684940519316	-23.1489423709177
		</Outline4>
	</curves.scaled>
	<ruler.points type=matrix rownames=TRUE colnames=FALSE nrow=2 ncol=2 as.numeric=TRUE >
		Ruler point 1	2921	2514
		Ruler point 2	2230	2543
	</ruler.points>
</shapes>

