<shapes type=list>
	<ruler.pixel type=vector names=FALSE length=1 as.numeric=TRUE >1965.1854874286</ruler.pixel>
	<ruler.interval type=vector names=FALSE length=1 as.numeric=TRUE >10</ruler.interval>
	<scaling.units type=vector names=FALSE length=1 as.numeric=FALSE >mm</scaling.units>
	<scaling type=vector names=FALSE length=1 as.numeric=TRUE >0.00508857818458895</scaling>
	<landmarks.pixel type=matrix rownames=TRUE colnames=FALSE nrow=4 ncol=2 as.numeric=TRUE >
		Labial	2228	1301
		Posterior	2187	1252
		Lingual	2237	1212
		Anterior	2276	1262
	</landmarks.pixel>
	<landmarks.scaled type=matrix rownames=TRUE colnames=FALSE nrow=4 ncol=2 as.numeric=TRUE >
		Labial	11.3373521952642	-6.62024021815023
		Posterior	11.128720489696	-6.37089988710537
		Lingual	11.3831493989255	-6.16735675972181
		Anterior	11.5816039481245	-6.42178566895126
	</landmarks.scaled>
	<curves.control type=list>
		<Outline1 type=matrix rownames=FALSE colnames=FALSE nrow=15 ncol=2 as.numeric=TRUE >
			2228	1301
			2223	1303
			2216	1302
			2210	1302
			2205	1300
			2200	1298
			2195	1294
			2191	1290
			2188	1286
			2185	1281
			2184	1275
			2184	1267
			2185	1262
			2185	1257
			2187	1252
		</Outline1>
		<Outline2 type=matrix rownames=FALSE colnames=FALSE nrow=13 ncol=2 as.numeric=TRUE >
			2187	1252
			2189	1244
			2191	1237
			2193	1232
			2195	1228
			2198	1223
			2203	1219
			2209	1216
			2214	1214
			2220	1212
			2225	1211
			2231	1210
			2237	1212
		</Outline2>
		<Outline3 type=matrix rownames=FALSE colnames=FALSE nrow=13 ncol=2 as.numeric=TRUE >
			2237	1212
			2245	1214
			2252	1217
			2257	1220
			2262	1224
			2266	1228
			2269	1233
			2272	1238
			2273	1244
			2274	1250
			2275	1254
			2275	1257
			2276	1262
		</Outline3>
		<Outline4 type=matrix rownames=FALSE colnames=FALSE nrow=15 ncol=2 as.numeric=TRUE >
			2276	1262
			2277	1270
			2277	1276
			2276	1282
			2274	1287
			2270	1291
			2266	1294
			2260	1297
			2255	1298
			2249	1299
			2244	1299
			2238	1299
			2234	1299
			2231	1300
			2228	1301
		</Outline4>
	</curves.control>
	<curves.pixel type=list>
		<Outline1 type=matrix rownames=FALSE colnames=FALSE nrow=78 ncol=2 as.numeric=TRUE >
			2228	1301
			2227	1301
			2226	1302
			2225	1302
			2224	1302
			2223	1302
			2222	1302
			2221	1302
			2220	1302
			2219	1302
			2218	1302
			2217	1302
			2216	1302
			2215	1302
			2214	1302
			2213	1302
			2212	1302
			2211	1302
			2210	1301
			2209	1301
			2208	1301
			2207	1301
			2206	1300
			2205	1300
			2204	1300
			2203	1299
			2202	1299
			2202	1298
			2201	1298
			2200	1297
			2199	1297
			2198	1296
			2197	1296
			2196	1295
			2196	1294
			2195	1294
			2194	1293
			2193	1292
			2192	1291
			2191	1290
			2190	1289
			2190	1288
			2189	1287
			2188	1286
			2188	1285
			2187	1284
			2186	1283
			2186	1282
			2186	1281
			2185	1280
			2185	1279
			2185	1278
			2184	1277
			2184	1276
			2184	1275
			2184	1274
			2184	1273
			2184	1272
			2184	1271
			2184	1270
			2184	1269
			2184	1268
			2184	1267
			2184	1266
			2185	1265
			2185	1264
			2185	1263
			2185	1262
			2185	1261
			2185	1260
			2185	1259
			2185	1258
			2186	1257
			2186	1256
			2186	1255
			2186	1254
			2187	1253
			2187	1252
		</Outline1>
		<Outline2 type=matrix rownames=FALSE colnames=FALSE nrow=70 ncol=2 as.numeric=TRUE >
			2187	1252
			2187	1251
			2188	1250
			2188	1249
			2188	1248
			2188	1247
			2189	1246
			2189	1245
			2189	1244
			2189	1243
			2189	1242
			2190	1242
			2190	1241
			2190	1240
			2190	1239
			2191	1238
			2191	1237
			2191	1236
			2192	1235
			2192	1234
			2193	1233
			2193	1232
			2194	1231
			2194	1230
			2195	1229
			2195	1228
			2196	1227
			2196	1226
			2197	1226
			2197	1225
			2198	1224
			2199	1223
			2200	1222
			2201	1221
			2202	1220
			2203	1219
			2204	1218
			2205	1218
			2206	1218
			2207	1217
			2208	1217
			2209	1216
			2210	1216
			2211	1215
			2212	1215
			2213	1214
			2214	1214
			2215	1214
			2216	1213
			2217	1213
			2218	1213
			2219	1212
			2220	1212
			2221	1212
			2222	1212
			2223	1211
			2224	1211
			2225	1211
			2226	1211
			2227	1211
			2228	1211
			2229	1211
			2230	1211
			2231	1211
			2232	1211
			2233	1211
			2234	1211
			2235	1211
			2236	1212
			2237	1212
		</Outline2>
		<Outline3 type=matrix rownames=FALSE colnames=FALSE nrow=66 ncol=2 as.numeric=TRUE >
			2237	1212
			2238	1212
			2239	1213
			2240	1213
			2241	1213
			2242	1213
			2242	1214
			2243	1214
			2244	1214
			2245	1214
			2246	1215
			2247	1215
			2248	1215
			2249	1216
			2250	1216
			2251	1216
			2252	1217
			2253	1218
			2254	1218
			2255	1219
			2256	1220
			2257	1220
			2258	1221
			2259	1222
			2260	1222
			2261	1223
			2262	1224
			2263	1225
			2264	1226
			2265	1227
			2265	1228
			2266	1229
			2267	1230
			2268	1231
			2268	1232
			2269	1233
			2270	1234
			2270	1235
			2271	1236
			2271	1237
			2271	1238
			2272	1239
			2272	1240
			2272	1241
			2273	1242
			2273	1243
			2273	1244
			2273	1245
			2273	1246
			2273	1247
			2274	1247
			2274	1248
			2274	1249
			2274	1250
			2274	1251
			2275	1252
			2275	1253
			2275	1254
			2275	1255
			2275	1256
			2275	1257
			2275	1258
			2275	1259
			2276	1260
			2276	1261
			2276	1262
		</Outline3>
		<Outline4 type=matrix rownames=FALSE colnames=FALSE nrow=72 ncol=2 as.numeric=TRUE >
			2276	1262
			2276	1263
			2276	1264
			2276	1265
			2276	1266
			2277	1267
			2277	1268
			2277	1269
			2277	1270
			2277	1271
			2277	1272
			2277	1273
			2277	1274
			2277	1275
			2277	1276
			2277	1277
			2277	1278
			2276	1279
			2276	1280
			2276	1281
			2276	1282
			2275	1283
			2275	1284
			2275	1285
			2274	1286
			2274	1287
			2273	1288
			2272	1289
			2271	1290
			2270	1291
			2269	1292
			2268	1292
			2267	1293
			2266	1294
			2265	1295
			2264	1295
			2263	1295
			2262	1296
			2261	1296
			2260	1297
			2259	1297
			2258	1297
			2257	1297
			2256	1298
			2255	1298
			2254	1298
			2253	1298
			2252	1298
			2251	1299
			2250	1299
			2249	1299
			2248	1299
			2247	1299
			2246	1299
			2245	1299
			2244	1299
			2243	1299
			2242	1299
			2241	1299
			2240	1299
			2239	1299
			2238	1299
			2237	1299
			2236	1299
			2235	1299
			2234	1299
			2233	1299
			2232	1300
			2231	1300
			2230	1300
			2229	1301
			2228	1301
		</Outline4>
	</curves.pixel>
	<curves.scaled type=list>
		<Outline1 type=matrix rownames=FALSE colnames=FALSE nrow=78 ncol=2 as.numeric=TRUE >
			11.3373521952642	-6.62024021815023
			11.3322636170796	-6.62024021815023
			11.327175038895	-6.62532879633481
			11.3220864607104	-6.62532879633481
			11.3169978825258	-6.62532879633481
			11.3119093043412	-6.62532879633481
			11.3068207261567	-6.62532879633481
			11.3017321479721	-6.62532879633481
			11.2966435697875	-6.62532879633481
			11.2915549916029	-6.62532879633481
			11.2864664134183	-6.62532879633481
			11.2813778352337	-6.62532879633481
			11.2762892570491	-6.62532879633481
			11.2712006788645	-6.62532879633481
			11.2661121006799	-6.62532879633481
			11.2610235224953	-6.62532879633481
			11.2559349443108	-6.62532879633481
			11.2508463661262	-6.62532879633481
			11.2457577879416	-6.62024021815023
			11.240669209757	-6.62024021815023
			11.2355806315724	-6.62024021815023
			11.2304920533878	-6.62024021815023
			11.2254034752032	-6.61515163996564
			11.2203148970186	-6.61515163996564
			11.2152263188341	-6.61515163996564
			11.2101377406495	-6.61006306178105
			11.2050491624649	-6.61006306178105
			11.2050491624649	-6.60497448359646
			11.1999605842803	-6.60497448359646
			11.1948720060957	-6.59988590541187
			11.1897834279111	-6.59988590541187
			11.1846948497265	-6.59479732722728
			11.1796062715419	-6.59479732722728
			11.1745176933573	-6.58970874904269
			11.1745176933573	-6.5846201708581
			11.1694291151727	-6.5846201708581
			11.1643405369882	-6.57953159267351
			11.1592519588036	-6.57444301448893
			11.154163380619	-6.56935443630434
			11.1490748024344	-6.56426585811975
			11.1439862242498	-6.55917727993516
			11.1439862242498	-6.55408870175057
			11.1388976460652	-6.54900012356598
			11.1338090678806	-6.54391154538139
			11.1338090678806	-6.5388229671968
			11.128720489696	-6.53373438901221
			11.1236319115114	-6.52864581082762
			11.1236319115114	-6.52355723264304
			11.1236319115114	-6.51846865445845
			11.1185433333269	-6.51338007627386
			11.1185433333269	-6.50829149808927
			11.1185433333269	-6.50320291990468
			11.1134547551423	-6.49811434172009
			11.1134547551423	-6.4930257635355
			11.1134547551423	-6.48793718535091
			11.1134547551423	-6.48284860716632
			11.1134547551423	-6.47776002898174
			11.1134547551423	-6.47267145079715
			11.1134547551423	-6.46758287261256
			11.1134547551423	-6.46249429442797
			11.1134547551423	-6.45740571624338
			11.1134547551423	-6.45231713805879
			11.1134547551423	-6.4472285598742
			11.1134547551423	-6.44213998168961
			11.1185433333269	-6.43705140350502
			11.1185433333269	-6.43196282532043
			11.1185433333269	-6.42687424713585
			11.1185433333269	-6.42178566895126
			11.1185433333269	-6.41669709076667
			11.1185433333269	-6.41160851258208
			11.1185433333269	-6.40651993439749
			11.1185433333269	-6.4014313562129
			11.1236319115114	-6.39634277802831
			11.1236319115114	-6.39125419984372
			11.1236319115114	-6.38616562165913
			11.1236319115114	-6.38107704347455
			11.128720489696	-6.37598846528996
			11.128720489696	-6.37089988710537
		</Outline1>
		<Outline2 type=matrix rownames=FALSE colnames=FALSE nrow=70 ncol=2 as.numeric=TRUE >
			11.128720489696	-6.37089988710537
			11.128720489696	-6.36581130892078
			11.1338090678806	-6.36072273073619
			11.1338090678806	-6.3556341525516
			11.1338090678806	-6.35054557436701
			11.1338090678806	-6.34545699618242
			11.1388976460652	-6.34036841799783
			11.1388976460652	-6.33527983981324
			11.1388976460652	-6.33019126162866
			11.1388976460652	-6.32510268344407
			11.1388976460652	-6.32001410525948
			11.1439862242498	-6.32001410525948
			11.1439862242498	-6.31492552707489
			11.1439862242498	-6.3098369488903
			11.1439862242498	-6.30474837070571
			11.1490748024344	-6.29965979252112
			11.1490748024344	-6.29457121433653
			11.1490748024344	-6.28948263615194
			11.154163380619	-6.28439405796736
			11.154163380619	-6.27930547978277
			11.1592519588036	-6.27421690159818
			11.1592519588036	-6.26912832341359
			11.1643405369882	-6.264039745229
			11.1643405369882	-6.25895116704441
			11.1694291151727	-6.25386258885982
			11.1694291151727	-6.24877401067523
			11.1745176933573	-6.24368543249064
			11.1745176933573	-6.23859685430605
			11.1796062715419	-6.23859685430605
			11.1796062715419	-6.23350827612147
			11.1846948497265	-6.22841969793688
			11.1897834279111	-6.22333111975229
			11.1948720060957	-6.2182425415677
			11.1999605842803	-6.21315396338311
			11.2050491624649	-6.20806538519852
			11.2101377406495	-6.20297680701393
			11.2152263188341	-6.19788822882934
			11.2203148970186	-6.19788822882934
			11.2254034752032	-6.19788822882934
			11.2304920533878	-6.19279965064475
			11.2355806315724	-6.19279965064475
			11.240669209757	-6.18771107246017
			11.2457577879416	-6.18771107246017
			11.2508463661262	-6.18262249427558
			11.2559349443108	-6.18262249427558
			11.2610235224953	-6.17753391609099
			11.2661121006799	-6.17753391609099
			11.2712006788645	-6.17753391609099
			11.2762892570491	-6.1724453379064
			11.2813778352337	-6.1724453379064
			11.2864664134183	-6.1724453379064
			11.2915549916029	-6.16735675972181
			11.2966435697875	-6.16735675972181
			11.3017321479721	-6.16735675972181
			11.3068207261567	-6.16735675972181
			11.3119093043412	-6.16226818153722
			11.3169978825258	-6.16226818153722
			11.3220864607104	-6.16226818153722
			11.327175038895	-6.16226818153722
			11.3322636170796	-6.16226818153722
			11.3373521952642	-6.16226818153722
			11.3424407734488	-6.16226818153722
			11.3475293516334	-6.16226818153722
			11.352617929818	-6.16226818153722
			11.3577065080025	-6.16226818153722
			11.3627950861871	-6.16226818153722
			11.3678836643717	-6.16226818153722
			11.3729722425563	-6.16226818153722
			11.3780608207409	-6.16735675972181
			11.3831493989255	-6.16735675972181
		</Outline2>
		<Outline3 type=matrix rownames=FALSE colnames=FALSE nrow=66 ncol=2 as.numeric=TRUE >
			11.3831493989255	-6.16735675972181
			11.3882379771101	-6.16735675972181
			11.3933265552947	-6.1724453379064
			11.3984151334793	-6.1724453379064
			11.4035037116638	-6.1724453379064
			11.4085922898484	-6.1724453379064
			11.4085922898484	-6.17753391609099
			11.413680868033	-6.17753391609099
			11.4187694462176	-6.17753391609099
			11.4238580244022	-6.17753391609099
			11.4289466025868	-6.18262249427558
			11.4340351807714	-6.18262249427558
			11.439123758956	-6.18262249427558
			11.4442123371406	-6.18771107246017
			11.4493009153251	-6.18771107246017
			11.4543894935097	-6.18771107246017
			11.4594780716943	-6.19279965064475
			11.4645666498789	-6.19788822882934
			11.4696552280635	-6.19788822882934
			11.4747438062481	-6.20297680701393
			11.4798323844327	-6.20806538519852
			11.4849209626173	-6.20806538519852
			11.4900095408019	-6.21315396338311
			11.4950981189864	-6.2182425415677
			11.500186697171	-6.2182425415677
			11.5052752753556	-6.22333111975229
			11.5103638535402	-6.22841969793688
			11.5154524317248	-6.23350827612147
			11.5205410099094	-6.23859685430605
			11.525629588094	-6.24368543249064
			11.525629588094	-6.24877401067523
			11.5307181662786	-6.25386258885982
			11.5358067444632	-6.25895116704441
			11.5408953226477	-6.264039745229
			11.5408953226477	-6.26912832341359
			11.5459839008323	-6.27421690159818
			11.5510724790169	-6.27930547978277
			11.5510724790169	-6.28439405796736
			11.5561610572015	-6.28948263615194
			11.5561610572015	-6.29457121433653
			11.5561610572015	-6.29965979252112
			11.5612496353861	-6.30474837070571
			11.5612496353861	-6.3098369488903
			11.5612496353861	-6.31492552707489
			11.5663382135707	-6.32001410525948
			11.5663382135707	-6.32510268344407
			11.5663382135707	-6.33019126162866
			11.5663382135707	-6.33527983981324
			11.5663382135707	-6.34036841799783
			11.5663382135707	-6.34545699618242
			11.5714267917553	-6.34545699618242
			11.5714267917553	-6.35054557436701
			11.5714267917553	-6.3556341525516
			11.5714267917553	-6.36072273073619
			11.5714267917553	-6.36581130892078
			11.5765153699399	-6.37089988710537
			11.5765153699399	-6.37598846528996
			11.5765153699399	-6.38107704347455
			11.5765153699399	-6.38616562165913
			11.5765153699399	-6.39125419984372
			11.5765153699399	-6.39634277802831
			11.5765153699399	-6.4014313562129
			11.5765153699399	-6.40651993439749
			11.5816039481245	-6.41160851258208
			11.5816039481245	-6.41669709076667
			11.5816039481245	-6.42178566895126
		</Outline3>
		<Outline4 type=matrix rownames=FALSE colnames=FALSE nrow=72 ncol=2 as.numeric=TRUE >
			11.5816039481245	-6.42178566895126
			11.5816039481245	-6.42687424713585
			11.5816039481245	-6.43196282532043
			11.5816039481245	-6.43705140350502
			11.5816039481245	-6.44213998168961
			11.586692526309	-6.4472285598742
			11.586692526309	-6.45231713805879
			11.586692526309	-6.45740571624338
			11.586692526309	-6.46249429442797
			11.586692526309	-6.46758287261256
			11.586692526309	-6.47267145079715
			11.586692526309	-6.47776002898174
			11.586692526309	-6.48284860716632
			11.586692526309	-6.48793718535091
			11.586692526309	-6.4930257635355
			11.586692526309	-6.49811434172009
			11.586692526309	-6.50320291990468
			11.5816039481245	-6.50829149808927
			11.5816039481245	-6.51338007627386
			11.5816039481245	-6.51846865445845
			11.5816039481245	-6.52355723264304
			11.5765153699399	-6.52864581082762
			11.5765153699399	-6.53373438901221
			11.5765153699399	-6.5388229671968
			11.5714267917553	-6.54391154538139
			11.5714267917553	-6.54900012356598
			11.5663382135707	-6.55408870175057
			11.5612496353861	-6.55917727993516
			11.5561610572015	-6.56426585811975
			11.5510724790169	-6.56935443630434
			11.5459839008323	-6.57444301448893
			11.5408953226477	-6.57444301448893
			11.5358067444632	-6.57953159267351
			11.5307181662786	-6.5846201708581
			11.525629588094	-6.58970874904269
			11.5205410099094	-6.58970874904269
			11.5154524317248	-6.58970874904269
			11.5103638535402	-6.59479732722728
			11.5052752753556	-6.59479732722728
			11.500186697171	-6.59988590541187
			11.4950981189864	-6.59988590541187
			11.4900095408019	-6.59988590541187
			11.4849209626173	-6.59988590541187
			11.4798323844327	-6.60497448359646
			11.4747438062481	-6.60497448359646
			11.4696552280635	-6.60497448359646
			11.4645666498789	-6.60497448359646
			11.4594780716943	-6.60497448359646
			11.4543894935097	-6.61006306178105
			11.4493009153251	-6.61006306178105
			11.4442123371406	-6.61006306178105
			11.439123758956	-6.61006306178105
			11.4340351807714	-6.61006306178105
			11.4289466025868	-6.61006306178105
			11.4238580244022	-6.61006306178105
			11.4187694462176	-6.61006306178105
			11.413680868033	-6.61006306178105
			11.4085922898484	-6.61006306178105
			11.4035037116638	-6.61006306178105
			11.3984151334793	-6.61006306178105
			11.3933265552947	-6.61006306178105
			11.3882379771101	-6.61006306178105
			11.3831493989255	-6.61006306178105
			11.3780608207409	-6.61006306178105
			11.3729722425563	-6.61006306178105
			11.3678836643717	-6.61006306178105
			11.3627950861871	-6.61006306178105
			11.3577065080025	-6.61515163996564
			11.352617929818	-6.61515163996564
			11.3475293516334	-6.61515163996564
			11.3424407734488	-6.62024021815023
			11.3373521952642	-6.62024021815023
		</Outline4>
	</curves.scaled>
	<ruler.points type=matrix rownames=TRUE colnames=FALSE nrow=2 ncol=2 as.numeric=TRUE >
		Ruler point 1	2419	2536
		Ruler point 2	454	2563
	</ruler.points>
</shapes>

