<shapes type=list>
	<ruler.pixel type=vector names=FALSE length=1 as.numeric=TRUE >687.792119757125</ruler.pixel>
	<ruler.interval type=vector names=FALSE length=1 as.numeric=TRUE >10</ruler.interval>
	<scaling.units type=vector names=FALSE length=1 as.numeric=FALSE >mm</scaling.units>
	<scaling type=vector names=FALSE length=1 as.numeric=TRUE >0.0145392767854497</scaling>
	<landmarks.pixel type=matrix rownames=TRUE colnames=FALSE nrow=4 ncol=2 as.numeric=TRUE >
		Labial	2454	1078
		Posterior	2351	1015
		Lingual	2419	916
		Anterior	2529	977
	</landmarks.pixel>
	<landmarks.scaled type=matrix rownames=TRUE colnames=FALSE nrow=4 ncol=2 as.numeric=TRUE >
		Labial	35.6793852314935	-15.6733403747148
		Posterior	34.1818397225922	-14.7573659372314
		Lingual	35.1705105440028	-13.3179775354719
		Anterior	36.7698309904022	-14.2048734193843
	</landmarks.scaled>
	<curves.control type=list>
		<Outline1 type=matrix rownames=FALSE colnames=FALSE nrow=17 ncol=2 as.numeric=TRUE >
			2454	1078
			2448	1085
			2439	1092
			2432	1097
			2422	1102
			2412	1104
			2398	1104
			2388	1102
			2380	1098
			2372	1093
			2364	1086
			2359	1078
			2355	1070
			2352	1060
			2350	1049
			2350	1035
			2351	1015
		</Outline1>
		<Outline2 type=matrix rownames=FALSE colnames=FALSE nrow=15 ncol=2 as.numeric=TRUE >
			2351	1015
			2352	999
			2352	985
			2352	974
			2354	964
			2357	956
			2362	950
			2366	943
			2368	935
			2372	928
			2378	924
			2385	921
			2393	918
			2403	916
			2419	916
		</Outline2>
		<Outline3 type=matrix rownames=FALSE colnames=FALSE nrow=15 ncol=2 as.numeric=TRUE >
			2419	916
			2430	915
			2442	915
			2453	915
			2463	915
			2475	916
			2485	918
			2493	921
			2504	928
			2511	934
			2517	942
			2523	949
			2525	956
			2527	966
			2529	977
		</Outline3>
		<Outline4 type=matrix rownames=FALSE colnames=FALSE nrow=17 ncol=2 as.numeric=TRUE >
			2529	977
			2532	991
			2532	1003
			2531	1015
			2529	1025
			2523	1035
			2519	1042
			2513	1048
			2507	1054
			2498	1059
			2491	1062
			2481	1065
			2473	1066
			2465	1068
			2460	1072
			2457	1075
			2454	1078
		</Outline4>
	</curves.control>
	<curves.pixel type=list>
		<Outline1 type=matrix rownames=FALSE colnames=FALSE nrow=167 ncol=2 as.numeric=TRUE >
			2454	1078
			2453	1079
			2452	1080
			2451	1081
			2450	1082
			2449	1083
			2448	1084
			2448	1085
			2447	1085
			2446	1086
			2445	1087
			2444	1088
			2443	1088
			2442	1089
			2442	1090
			2441	1091
			2440	1092
			2439	1092
			2438	1093
			2437	1093
			2436	1094
			2435	1095
			2434	1096
			2433	1096
			2432	1097
			2431	1097
			2430	1098
			2429	1098
			2428	1099
			2427	1099
			2426	1100
			2425	1100
			2424	1101
			2423	1102
			2422	1102
			2421	1102
			2420	1102
			2419	1102
			2419	1103
			2418	1103
			2417	1103
			2416	1103
			2415	1103
			2414	1103
			2413	1103
			2412	1103
			2411	1103
			2410	1104
			2409	1104
			2408	1104
			2407	1104
			2406	1104
			2405	1104
			2404	1104
			2403	1104
			2402	1104
			2401	1104
			2400	1104
			2399	1104
			2398	1104
			2397	1104
			2396	1104
			2395	1103
			2394	1103
			2393	1103
			2392	1103
			2391	1102
			2390	1102
			2389	1102
			2388	1101
			2387	1101
			2386	1100
			2385	1100
			2384	1100
			2383	1099
			2382	1099
			2381	1098
			2380	1098
			2379	1097
			2378	1097
			2377	1096
			2376	1095
			2375	1095
			2374	1094
			2373	1094
			2372	1093
			2371	1092
			2371	1091
			2370	1091
			2369	1090
			2368	1089
			2367	1088
			2366	1088
			2365	1087
			2364	1086
			2363	1085
			2363	1084
			2362	1083
			2362	1082
			2361	1081
			2361	1080
			2360	1080
			2360	1079
			2359	1078
			2359	1077
			2358	1076
			2358	1075
			2357	1074
			2357	1073
			2356	1072
			2356	1071
			2355	1070
			2355	1069
			2354	1068
			2354	1067
			2354	1066
			2354	1065
			2353	1064
			2353	1063
			2353	1062
			2352	1061
			2352	1060
			2352	1059
			2352	1058
			2352	1057
			2351	1056
			2351	1055
			2351	1054
			2351	1053
			2350	1052
			2350	1051
			2350	1050
			2350	1049
			2350	1048
			2350	1047
			2350	1046
			2350	1045
			2350	1044
			2350	1043
			2350	1042
			2350	1041
			2350	1040
			2350	1039
			2350	1038
			2350	1037
			2350	1036
			2350	1035
			2350	1034
			2350	1033
			2350	1032
			2350	1031
			2350	1030
			2350	1029
			2350	1028
			2350	1027
			2350	1026
			2351	1025
			2351	1024
			2351	1023
			2351	1022
			2351	1021
			2351	1020
			2351	1019
			2351	1018
			2351	1017
			2351	1016
			2351	1015
		</Outline1>
		<Outline2 type=matrix rownames=FALSE colnames=FALSE nrow=138 ncol=2 as.numeric=TRUE >
			2351	1015
			2351	1014
			2351	1013
			2351	1012
			2351	1011
			2351	1010
			2351	1009
			2351	1008
			2351	1007
			2352	1006
			2352	1005
			2352	1004
			2352	1003
			2352	1002
			2352	1001
			2352	1000
			2352	999
			2352	998
			2352	997
			2352	996
			2352	995
			2352	994
			2352	993
			2352	992
			2352	991
			2352	990
			2352	989
			2352	988
			2352	987
			2352	986
			2352	985
			2352	984
			2352	983
			2352	982
			2352	981
			2352	980
			2352	979
			2352	978
			2352	977
			2352	976
			2352	975
			2353	974
			2353	973
			2353	972
			2353	971
			2353	970
			2353	969
			2353	968
			2354	967
			2354	966
			2354	965
			2354	964
			2354	963
			2355	962
			2355	961
			2356	960
			2356	959
			2357	958
			2357	957
			2358	956
			2358	955
			2359	955
			2359	954
			2360	953
			2360	952
			2361	951
			2362	950
			2363	949
			2363	948
			2364	947
			2364	946
			2364	945
			2365	944
			2365	943
			2366	942
			2366	941
			2367	940
			2367	939
			2367	938
			2367	937
			2368	937
			2368	936
			2368	935
			2369	934
			2369	933
			2370	932
			2371	931
			2372	930
			2372	929
			2373	928
			2374	928
			2374	927
			2375	926
			2376	926
			2377	925
			2377	924
			2378	924
			2379	924
			2380	923
			2381	923
			2382	922
			2383	922
			2384	922
			2385	921
			2386	921
			2387	920
			2388	920
			2389	920
			2390	919
			2391	919
			2392	918
			2393	918
			2394	918
			2395	918
			2396	917
			2397	917
			2398	917
			2399	917
			2400	917
			2401	917
			2402	917
			2403	917
			2404	917
			2405	916
			2406	916
			2407	916
			2408	916
			2409	916
			2410	916
			2411	916
			2412	916
			2413	916
			2414	916
			2415	916
			2416	916
			2417	916
			2418	916
			2419	916
		</Outline2>
		<Outline3 type=matrix rownames=FALSE colnames=FALSE nrow=138 ncol=2 as.numeric=TRUE >
			2419	916
			2420	916
			2421	916
			2422	916
			2423	916
			2424	916
			2425	916
			2426	915
			2427	915
			2428	915
			2429	915
			2430	915
			2431	915
			2432	915
			2433	915
			2434	915
			2435	915
			2436	915
			2437	915
			2438	915
			2439	915
			2440	915
			2441	915
			2442	915
			2443	915
			2444	915
			2445	915
			2446	915
			2447	915
			2448	915
			2449	915
			2450	915
			2451	915
			2452	915
			2453	915
			2454	915
			2455	915
			2456	915
			2457	915
			2458	915
			2459	915
			2460	915
			2461	915
			2462	915
			2463	915
			2464	915
			2465	915
			2466	915
			2467	915
			2468	915
			2469	916
			2470	916
			2471	916
			2472	916
			2473	916
			2474	916
			2475	916
			2476	916
			2477	917
			2478	917
			2479	917
			2480	917
			2481	917
			2482	918
			2483	918
			2484	918
			2485	918
			2486	918
			2487	919
			2488	919
			2489	920
			2490	920
			2491	921
			2492	921
			2493	922
			2494	922
			2495	923
			2496	923
			2497	924
			2498	924
			2499	925
			2500	925
			2501	926
			2502	927
			2503	927
			2504	928
			2505	929
			2506	930
			2507	931
			2508	931
			2509	932
			2509	933
			2510	934
			2511	934
			2511	935
			2512	936
			2513	937
			2514	938
			2515	939
			2516	940
			2516	941
			2517	942
			2518	943
			2519	944
			2519	945
			2520	946
			2521	947
			2521	948
			2522	949
			2522	950
			2523	950
			2523	951
			2524	952
			2524	953
			2524	954
			2525	955
			2525	956
			2525	957
			2525	958
			2526	959
			2526	960
			2526	961
			2526	962
			2526	963
			2527	964
			2527	965
			2527	966
			2527	967
			2527	968
			2528	969
			2528	970
			2528	971
			2528	972
			2528	973
			2528	974
			2529	975
			2529	976
			2529	977
		</Outline3>
		<Outline4 type=matrix rownames=FALSE colnames=FALSE nrow=135 ncol=2 as.numeric=TRUE >
			2529	977
			2529	978
			2529	979
			2530	980
			2530	981
			2530	982
			2530	983
			2530	984
			2531	985
			2531	986
			2531	987
			2531	988
			2531	989
			2531	990
			2531	991
			2531	992
			2532	993
			2532	994
			2532	995
			2532	996
			2532	997
			2532	998
			2532	999
			2532	1000
			2532	1001
			2532	1002
			2532	1003
			2532	1004
			2532	1005
			2532	1006
			2532	1007
			2532	1008
			2531	1009
			2531	1010
			2531	1011
			2531	1012
			2531	1013
			2531	1014
			2531	1015
			2531	1016
			2530	1016
			2530	1017
			2530	1018
			2530	1019
			2530	1020
			2530	1021
			2530	1022
			2529	1023
			2529	1024
			2529	1025
			2528	1026
			2528	1027
			2527	1028
			2527	1029
			2526	1030
			2525	1031
			2525	1032
			2524	1033
			2524	1034
			2523	1034
			2523	1035
			2522	1036
			2522	1037
			2522	1038
			2521	1038
			2521	1039
			2520	1040
			2520	1041
			2519	1041
			2519	1042
			2518	1043
			2517	1044
			2516	1045
			2515	1046
			2514	1047
			2513	1048
			2512	1049
			2511	1050
			2510	1051
			2509	1052
			2508	1053
			2507	1054
			2506	1055
			2505	1055
			2504	1056
			2503	1056
			2502	1057
			2501	1057
			2500	1058
			2499	1058
			2498	1059
			2497	1059
			2496	1060
			2495	1060
			2494	1061
			2493	1061
			2492	1061
			2491	1062
			2490	1062
			2489	1063
			2488	1063
			2487	1063
			2486	1063
			2485	1064
			2484	1064
			2483	1064
			2482	1064
			2481	1065
			2480	1065
			2479	1065
			2478	1065
			2477	1065
			2476	1066
			2475	1066
			2474	1066
			2473	1066
			2472	1066
			2471	1067
			2470	1067
			2469	1067
			2468	1068
			2467	1068
			2466	1068
			2465	1069
			2464	1070
			2463	1070
			2462	1071
			2461	1071
			2460	1072
			2459	1073
			2458	1074
			2457	1075
			2456	1076
			2455	1077
			2454	1078
		</Outline4>
	</curves.pixel>
	<curves.scaled type=list>
		<Outline1 type=matrix rownames=FALSE colnames=FALSE nrow=167 ncol=2 as.numeric=TRUE >
			35.6793852314935	-15.6733403747148
			35.6648459547081	-15.6878796515002
			35.6503066779226	-15.7024189282857
			35.6357674011372	-15.7169582050711
			35.6212281243517	-15.7314974818566
			35.6066888475663	-15.746036758642
			35.5921495707808	-15.7605760354275
			35.5921495707808	-15.7751153122129
			35.5776102939954	-15.7751153122129
			35.5630710172099	-15.7896545889984
			35.5485317404245	-15.8041938657838
			35.533992463639	-15.8187331425693
			35.5194531868536	-15.8187331425693
			35.5049139100681	-15.8332724193547
			35.5049139100681	-15.8478116961402
			35.4903746332827	-15.8623509729256
			35.4758353564972	-15.876890249711
			35.4612960797118	-15.876890249711
			35.4467568029263	-15.8914295264965
			35.4322175261409	-15.8914295264965
			35.4176782493554	-15.9059688032819
			35.40313897257	-15.9205080800674
			35.3885996957845	-15.9350473568528
			35.3740604189991	-15.9350473568528
			35.3595211422136	-15.9495866336383
			35.3449818654282	-15.9495866336383
			35.3304425886427	-15.9641259104237
			35.3159033118573	-15.9641259104237
			35.3013640350718	-15.9786651872092
			35.2868247582864	-15.9786651872092
			35.2722854815009	-15.9932044639946
			35.2577462047155	-15.9932044639946
			35.24320692793	-16.0077437407801
			35.2286676511446	-16.0222830175655
			35.2141283743591	-16.0222830175655
			35.1995890975737	-16.0222830175655
			35.1850498207882	-16.0222830175655
			35.1705105440028	-16.0222830175655
			35.1705105440028	-16.036822294351
			35.1559712672173	-16.036822294351
			35.1414319904319	-16.036822294351
			35.1268927136464	-16.036822294351
			35.112353436861	-16.036822294351
			35.0978141600755	-16.036822294351
			35.0832748832901	-16.036822294351
			35.0687356065046	-16.036822294351
			35.0541963297192	-16.036822294351
			35.0396570529337	-16.0513615711364
			35.0251177761483	-16.0513615711364
			35.0105784993628	-16.0513615711364
			34.9960392225774	-16.0513615711364
			34.9814999457919	-16.0513615711364
			34.9669606690065	-16.0513615711364
			34.952421392221	-16.0513615711364
			34.9378821154356	-16.0513615711364
			34.9233428386501	-16.0513615711364
			34.9088035618647	-16.0513615711364
			34.8942642850792	-16.0513615711364
			34.8797250082938	-16.0513615711364
			34.8651857315083	-16.0513615711364
			34.8506464547229	-16.0513615711364
			34.8361071779374	-16.0513615711364
			34.821567901152	-16.036822294351
			34.8070286243665	-16.036822294351
			34.7924893475811	-16.036822294351
			34.7779500707956	-16.036822294351
			34.7634107940102	-16.0222830175655
			34.7488715172247	-16.0222830175655
			34.7343322404393	-16.0222830175655
			34.7197929636538	-16.0077437407801
			34.7052536868684	-16.0077437407801
			34.6907144100829	-15.9932044639946
			34.6761751332975	-15.9932044639946
			34.661635856512	-15.9932044639946
			34.6470965797266	-15.9786651872092
			34.6325573029411	-15.9786651872092
			34.6180180261557	-15.9641259104237
			34.6034787493702	-15.9641259104237
			34.5889394725848	-15.9495866336383
			34.5744001957993	-15.9495866336383
			34.5598609190139	-15.9350473568528
			34.5453216422284	-15.9205080800674
			34.530782365443	-15.9205080800674
			34.5162430886575	-15.9059688032819
			34.5017038118721	-15.9059688032819
			34.4871645350866	-15.8914295264965
			34.4726252583012	-15.876890249711
			34.4726252583012	-15.8623509729256
			34.4580859815157	-15.8623509729256
			34.4435467047303	-15.8478116961402
			34.4290074279448	-15.8332724193547
			34.4144681511594	-15.8187331425693
			34.3999288743739	-15.8187331425693
			34.3853895975885	-15.8041938657838
			34.370850320803	-15.7896545889984
			34.3563110440176	-15.7751153122129
			34.3563110440176	-15.7605760354275
			34.3417717672321	-15.746036758642
			34.3417717672321	-15.7314974818566
			34.3272324904467	-15.7169582050711
			34.3272324904467	-15.7024189282857
			34.3126932136612	-15.7024189282857
			34.3126932136612	-15.6878796515002
			34.2981539368758	-15.6733403747148
			34.2981539368758	-15.6588010979293
			34.2836146600903	-15.6442618211439
			34.2836146600903	-15.6297225443584
			34.2690753833049	-15.615183267573
			34.2690753833049	-15.6006439907875
			34.2545361065194	-15.5861047140021
			34.2545361065194	-15.5715654372166
			34.239996829734	-15.5570261604312
			34.239996829734	-15.5424868836457
			34.2254575529485	-15.5279476068603
			34.2254575529485	-15.5134083300748
			34.2254575529485	-15.4988690532894
			34.2254575529485	-15.4843297765039
			34.2109182761631	-15.4697904997185
			34.2109182761631	-15.455251222933
			34.2109182761631	-15.4407119461476
			34.1963789993776	-15.4261726693621
			34.1963789993776	-15.4116333925767
			34.1963789993776	-15.3970941157912
			34.1963789993776	-15.3825548390058
			34.1963789993776	-15.3680155622203
			34.1818397225922	-15.3534762854349
			34.1818397225922	-15.3389370086494
			34.1818397225922	-15.324397731864
			34.1818397225922	-15.3098584550785
			34.1673004458067	-15.2953191782931
			34.1673004458067	-15.2807799015076
			34.1673004458067	-15.2662406247222
			34.1673004458067	-15.2517013479367
			34.1673004458067	-15.2371620711513
			34.1673004458067	-15.2226227943658
			34.1673004458067	-15.2080835175804
			34.1673004458067	-15.1935442407949
			34.1673004458067	-15.1790049640095
			34.1673004458067	-15.164465687224
			34.1673004458067	-15.1499264104386
			34.1673004458067	-15.1353871336531
			34.1673004458067	-15.1208478568677
			34.1673004458067	-15.1063085800822
			34.1673004458067	-15.0917693032968
			34.1673004458067	-15.0772300265113
			34.1673004458067	-15.0626907497259
			34.1673004458067	-15.0481514729404
			34.1673004458067	-15.033612196155
			34.1673004458067	-15.0190729193695
			34.1673004458067	-15.0045336425841
			34.1673004458067	-14.9899943657986
			34.1673004458067	-14.9754550890132
			34.1673004458067	-14.9609158122277
			34.1673004458067	-14.9463765354423
			34.1673004458067	-14.9318372586568
			34.1673004458067	-14.9172979818714
			34.1818397225922	-14.9027587050859
			34.1818397225922	-14.8882194283005
			34.1818397225922	-14.873680151515
			34.1818397225922	-14.8591408747296
			34.1818397225922	-14.8446015979441
			34.1818397225922	-14.8300623211587
			34.1818397225922	-14.8155230443732
			34.1818397225922	-14.8009837675878
			34.1818397225922	-14.7864444908023
			34.1818397225922	-14.7719052140169
			34.1818397225922	-14.7573659372314
		</Outline1>
		<Outline2 type=matrix rownames=FALSE colnames=FALSE nrow=138 ncol=2 as.numeric=TRUE >
			34.1818397225922	-14.7573659372314
			34.1818397225922	-14.742826660446
			34.1818397225922	-14.7282873836605
			34.1818397225922	-14.7137481068751
			34.1818397225922	-14.6992088300896
			34.1818397225922	-14.6846695533042
			34.1818397225922	-14.6701302765187
			34.1818397225922	-14.6555909997333
			34.1818397225922	-14.6410517229478
			34.1963789993776	-14.6265124461624
			34.1963789993776	-14.6119731693769
			34.1963789993776	-14.5974338925915
			34.1963789993776	-14.582894615806
			34.1963789993776	-14.5683553390206
			34.1963789993776	-14.5538160622351
			34.1963789993776	-14.5392767854497
			34.1963789993776	-14.5247375086642
			34.1963789993776	-14.5101982318788
			34.1963789993776	-14.4956589550933
			34.1963789993776	-14.4811196783079
			34.1963789993776	-14.4665804015224
			34.1963789993776	-14.452041124737
			34.1963789993776	-14.4375018479515
			34.1963789993776	-14.4229625711661
			34.1963789993776	-14.4084232943806
			34.1963789993776	-14.3938840175952
			34.1963789993776	-14.3793447408097
			34.1963789993776	-14.3648054640243
			34.1963789993776	-14.3502661872388
			34.1963789993776	-14.3357269104534
			34.1963789993776	-14.3211876336679
			34.1963789993776	-14.3066483568825
			34.1963789993776	-14.292109080097
			34.1963789993776	-14.2775698033116
			34.1963789993776	-14.2630305265261
			34.1963789993776	-14.2484912497407
			34.1963789993776	-14.2339519729552
			34.1963789993776	-14.2194126961698
			34.1963789993776	-14.2048734193843
			34.1963789993776	-14.1903341425989
			34.1963789993776	-14.1757948658134
			34.2109182761631	-14.161255589028
			34.2109182761631	-14.1467163122425
			34.2109182761631	-14.1321770354571
			34.2109182761631	-14.1176377586716
			34.2109182761631	-14.1030984818862
			34.2109182761631	-14.0885592051007
			34.2109182761631	-14.0740199283153
			34.2254575529485	-14.0594806515298
			34.2254575529485	-14.0449413747444
			34.2254575529485	-14.0304020979589
			34.2254575529485	-14.0158628211735
			34.2254575529485	-14.001323544388
			34.239996829734	-13.9867842676026
			34.239996829734	-13.9722449908171
			34.2545361065194	-13.9577057140317
			34.2545361065194	-13.9431664372462
			34.2690753833049	-13.9286271604608
			34.2690753833049	-13.9140878836753
			34.2836146600903	-13.8995486068899
			34.2836146600903	-13.8850093301044
			34.2981539368758	-13.8850093301044
			34.2981539368758	-13.870470053319
			34.3126932136612	-13.8559307765335
			34.3126932136612	-13.8413914997481
			34.3272324904467	-13.8268522229626
			34.3417717672321	-13.8123129461772
			34.3563110440176	-13.7977736693917
			34.3563110440176	-13.7832343926063
			34.370850320803	-13.7686951158208
			34.370850320803	-13.7541558390354
			34.370850320803	-13.7396165622499
			34.3853895975885	-13.7250772854645
			34.3853895975885	-13.710538008679
			34.3999288743739	-13.6959987318936
			34.3999288743739	-13.6814594551081
			34.4144681511594	-13.6669201783227
			34.4144681511594	-13.6523809015372
			34.4144681511594	-13.6378416247518
			34.4144681511594	-13.6233023479663
			34.4290074279448	-13.6233023479663
			34.4290074279448	-13.6087630711809
			34.4290074279448	-13.5942237943955
			34.4435467047303	-13.57968451761
			34.4435467047303	-13.5651452408246
			34.4580859815157	-13.5506059640391
			34.4726252583012	-13.5360666872537
			34.4871645350866	-13.5215274104682
			34.4871645350866	-13.5069881336828
			34.5017038118721	-13.4924488568973
			34.5162430886575	-13.4924488568973
			34.5162430886575	-13.4779095801119
			34.530782365443	-13.4633703033264
			34.5453216422284	-13.4633703033264
			34.5598609190139	-13.448831026541
			34.5598609190139	-13.4342917497555
			34.5744001957993	-13.4342917497555
			34.5889394725848	-13.4342917497555
			34.6034787493702	-13.4197524729701
			34.6180180261557	-13.4197524729701
			34.6325573029411	-13.4052131961846
			34.6470965797266	-13.4052131961846
			34.661635856512	-13.4052131961846
			34.6761751332975	-13.3906739193992
			34.6907144100829	-13.3906739193992
			34.7052536868684	-13.3761346426137
			34.7197929636538	-13.3761346426137
			34.7343322404393	-13.3761346426137
			34.7488715172247	-13.3615953658283
			34.7634107940102	-13.3615953658283
			34.7779500707956	-13.3470560890428
			34.7924893475811	-13.3470560890428
			34.8070286243665	-13.3470560890428
			34.821567901152	-13.3470560890428
			34.8361071779374	-13.3325168122574
			34.8506464547229	-13.3325168122574
			34.8651857315083	-13.3325168122574
			34.8797250082938	-13.3325168122574
			34.8942642850792	-13.3325168122574
			34.9088035618647	-13.3325168122574
			34.9233428386501	-13.3325168122574
			34.9378821154356	-13.3325168122574
			34.952421392221	-13.3325168122574
			34.9669606690065	-13.3179775354719
			34.9814999457919	-13.3179775354719
			34.9960392225774	-13.3179775354719
			35.0105784993628	-13.3179775354719
			35.0251177761483	-13.3179775354719
			35.0396570529337	-13.3179775354719
			35.0541963297192	-13.3179775354719
			35.0687356065046	-13.3179775354719
			35.0832748832901	-13.3179775354719
			35.0978141600755	-13.3179775354719
			35.112353436861	-13.3179775354719
			35.1268927136464	-13.3179775354719
			35.1414319904319	-13.3179775354719
			35.1559712672173	-13.3179775354719
			35.1705105440028	-13.3179775354719
		</Outline2>
		<Outline3 type=matrix rownames=FALSE colnames=FALSE nrow=138 ncol=2 as.numeric=TRUE >
			35.1705105440028	-13.3179775354719
			35.1850498207882	-13.3179775354719
			35.1995890975737	-13.3179775354719
			35.2141283743591	-13.3179775354719
			35.2286676511446	-13.3179775354719
			35.24320692793	-13.3179775354719
			35.2577462047155	-13.3179775354719
			35.2722854815009	-13.3034382586865
			35.2868247582864	-13.3034382586865
			35.3013640350718	-13.3034382586865
			35.3159033118573	-13.3034382586865
			35.3304425886427	-13.3034382586865
			35.3449818654282	-13.3034382586865
			35.3595211422136	-13.3034382586865
			35.3740604189991	-13.3034382586865
			35.3885996957845	-13.3034382586865
			35.40313897257	-13.3034382586865
			35.4176782493554	-13.3034382586865
			35.4322175261409	-13.3034382586865
			35.4467568029263	-13.3034382586865
			35.4612960797118	-13.3034382586865
			35.4758353564972	-13.3034382586865
			35.4903746332827	-13.3034382586865
			35.5049139100681	-13.3034382586865
			35.5194531868536	-13.3034382586865
			35.533992463639	-13.3034382586865
			35.5485317404245	-13.3034382586865
			35.5630710172099	-13.3034382586865
			35.5776102939954	-13.3034382586865
			35.5921495707808	-13.3034382586865
			35.6066888475663	-13.3034382586865
			35.6212281243517	-13.3034382586865
			35.6357674011372	-13.3034382586865
			35.6503066779226	-13.3034382586865
			35.6648459547081	-13.3034382586865
			35.6793852314935	-13.3034382586865
			35.693924508279	-13.3034382586865
			35.7084637850644	-13.3034382586865
			35.7230030618499	-13.3034382586865
			35.7375423386353	-13.3034382586865
			35.7520816154208	-13.3034382586865
			35.7666208922062	-13.3034382586865
			35.7811601689917	-13.3034382586865
			35.7956994457771	-13.3034382586865
			35.8102387225626	-13.3034382586865
			35.824777999348	-13.3034382586865
			35.8393172761335	-13.3034382586865
			35.8538565529189	-13.3034382586865
			35.8683958297044	-13.3034382586865
			35.8829351064898	-13.3034382586865
			35.8974743832753	-13.3179775354719
			35.9120136600607	-13.3179775354719
			35.9265529368462	-13.3179775354719
			35.9410922136316	-13.3179775354719
			35.9556314904171	-13.3179775354719
			35.9701707672025	-13.3179775354719
			35.984710043988	-13.3179775354719
			35.9992493207734	-13.3179775354719
			36.0137885975589	-13.3325168122574
			36.0283278743443	-13.3325168122574
			36.0428671511298	-13.3325168122574
			36.0574064279152	-13.3325168122574
			36.0719457047007	-13.3325168122574
			36.0864849814861	-13.3470560890428
			36.1010242582716	-13.3470560890428
			36.115563535057	-13.3470560890428
			36.1301028118425	-13.3470560890428
			36.1446420886279	-13.3470560890428
			36.1591813654134	-13.3615953658283
			36.1737206421988	-13.3615953658283
			36.1882599189843	-13.3761346426137
			36.2027991957697	-13.3761346426137
			36.2173384725551	-13.3906739193992
			36.2318777493406	-13.3906739193992
			36.2464170261261	-13.4052131961846
			36.2609563029115	-13.4052131961846
			36.275495579697	-13.4197524729701
			36.2900348564824	-13.4197524729701
			36.3045741332678	-13.4342917497555
			36.3191134100533	-13.4342917497555
			36.3336526868387	-13.448831026541
			36.3481919636242	-13.448831026541
			36.3627312404097	-13.4633703033264
			36.3772705171951	-13.4779095801119
			36.3918097939805	-13.4779095801119
			36.406349070766	-13.4924488568973
			36.4208883475514	-13.5069881336828
			36.4354276243369	-13.5215274104682
			36.4499669011223	-13.5360666872537
			36.4645061779078	-13.5360666872537
			36.4790454546932	-13.5506059640391
			36.4790454546932	-13.5651452408246
			36.4935847314787	-13.57968451761
			36.5081240082641	-13.57968451761
			36.5081240082641	-13.5942237943955
			36.5226632850496	-13.6087630711809
			36.537202561835	-13.6233023479663
			36.5517418386205	-13.6378416247518
			36.5662811154059	-13.6523809015372
			36.5808203921914	-13.6669201783227
			36.5808203921914	-13.6814594551081
			36.5953596689768	-13.6959987318936
			36.6098989457623	-13.710538008679
			36.6244382225477	-13.7250772854645
			36.6244382225477	-13.7396165622499
			36.6389774993332	-13.7541558390354
			36.6535167761186	-13.7686951158208
			36.6535167761186	-13.7832343926063
			36.6680560529041	-13.7977736693917
			36.6680560529041	-13.8123129461772
			36.6825953296895	-13.8123129461772
			36.6825953296895	-13.8268522229626
			36.697134606475	-13.8413914997481
			36.697134606475	-13.8559307765335
			36.697134606475	-13.870470053319
			36.7116738832604	-13.8850093301044
			36.7116738832604	-13.8995486068899
			36.7116738832604	-13.9140878836753
			36.7116738832604	-13.9286271604608
			36.7262131600459	-13.9431664372462
			36.7262131600459	-13.9577057140317
			36.7262131600459	-13.9722449908171
			36.7262131600459	-13.9867842676026
			36.7262131600459	-14.001323544388
			36.7407524368313	-14.0158628211735
			36.7407524368313	-14.0304020979589
			36.7407524368313	-14.0449413747444
			36.7407524368313	-14.0594806515298
			36.7407524368313	-14.0740199283153
			36.7552917136168	-14.0885592051007
			36.7552917136168	-14.1030984818862
			36.7552917136168	-14.1176377586716
			36.7552917136168	-14.1321770354571
			36.7552917136168	-14.1467163122425
			36.7552917136168	-14.161255589028
			36.7698309904022	-14.1757948658134
			36.7698309904022	-14.1903341425989
			36.7698309904022	-14.2048734193843
		</Outline3>
		<Outline4 type=matrix rownames=FALSE colnames=FALSE nrow=135 ncol=2 as.numeric=TRUE >
			36.7698309904022	-14.2048734193843
			36.7698309904022	-14.2194126961698
			36.7698309904022	-14.2339519729552
			36.7843702671877	-14.2484912497407
			36.7843702671877	-14.2630305265261
			36.7843702671877	-14.2775698033116
			36.7843702671877	-14.292109080097
			36.7843702671877	-14.3066483568825
			36.7989095439731	-14.3211876336679
			36.7989095439731	-14.3357269104534
			36.7989095439731	-14.3502661872388
			36.7989095439731	-14.3648054640243
			36.7989095439731	-14.3793447408097
			36.7989095439731	-14.3938840175952
			36.7989095439731	-14.4084232943806
			36.7989095439731	-14.4229625711661
			36.8134488207586	-14.4375018479515
			36.8134488207586	-14.452041124737
			36.8134488207586	-14.4665804015224
			36.8134488207586	-14.4811196783079
			36.8134488207586	-14.4956589550933
			36.8134488207586	-14.5101982318788
			36.8134488207586	-14.5247375086642
			36.8134488207586	-14.5392767854497
			36.8134488207586	-14.5538160622351
			36.8134488207586	-14.5683553390206
			36.8134488207586	-14.582894615806
			36.8134488207586	-14.5974338925915
			36.8134488207586	-14.6119731693769
			36.8134488207586	-14.6265124461624
			36.8134488207586	-14.6410517229478
			36.8134488207586	-14.6555909997333
			36.7989095439731	-14.6701302765187
			36.7989095439731	-14.6846695533042
			36.7989095439731	-14.6992088300896
			36.7989095439731	-14.7137481068751
			36.7989095439731	-14.7282873836605
			36.7989095439731	-14.742826660446
			36.7989095439731	-14.7573659372314
			36.7989095439731	-14.7719052140169
			36.7843702671877	-14.7719052140169
			36.7843702671877	-14.7864444908023
			36.7843702671877	-14.8009837675878
			36.7843702671877	-14.8155230443732
			36.7843702671877	-14.8300623211587
			36.7843702671877	-14.8446015979441
			36.7843702671877	-14.8591408747296
			36.7698309904022	-14.873680151515
			36.7698309904022	-14.8882194283005
			36.7698309904022	-14.9027587050859
			36.7552917136168	-14.9172979818714
			36.7552917136168	-14.9318372586568
			36.7407524368313	-14.9463765354423
			36.7407524368313	-14.9609158122277
			36.7262131600459	-14.9754550890132
			36.7116738832604	-14.9899943657986
			36.7116738832604	-15.0045336425841
			36.697134606475	-15.0190729193695
			36.697134606475	-15.033612196155
			36.6825953296895	-15.033612196155
			36.6825953296895	-15.0481514729404
			36.6680560529041	-15.0626907497259
			36.6680560529041	-15.0772300265113
			36.6680560529041	-15.0917693032968
			36.6535167761186	-15.0917693032968
			36.6535167761186	-15.1063085800822
			36.6389774993332	-15.1208478568677
			36.6389774993332	-15.1353871336531
			36.6244382225477	-15.1353871336531
			36.6244382225477	-15.1499264104386
			36.6098989457623	-15.164465687224
			36.5953596689768	-15.1790049640095
			36.5808203921914	-15.1935442407949
			36.5662811154059	-15.2080835175804
			36.5517418386205	-15.2226227943658
			36.537202561835	-15.2371620711513
			36.5226632850496	-15.2517013479367
			36.5081240082641	-15.2662406247222
			36.4935847314787	-15.2807799015076
			36.4790454546932	-15.2953191782931
			36.4645061779078	-15.3098584550785
			36.4499669011223	-15.324397731864
			36.4354276243369	-15.3389370086494
			36.4208883475514	-15.3389370086494
			36.406349070766	-15.3534762854349
			36.3918097939805	-15.3534762854349
			36.3772705171951	-15.3680155622203
			36.3627312404097	-15.3680155622203
			36.3481919636242	-15.3825548390058
			36.3336526868387	-15.3825548390058
			36.3191134100533	-15.3970941157912
			36.3045741332678	-15.3970941157912
			36.2900348564824	-15.4116333925767
			36.275495579697	-15.4116333925767
			36.2609563029115	-15.4261726693621
			36.2464170261261	-15.4261726693621
			36.2318777493406	-15.4261726693621
			36.2173384725551	-15.4407119461476
			36.2027991957697	-15.4407119461476
			36.1882599189843	-15.455251222933
			36.1737206421988	-15.455251222933
			36.1591813654134	-15.455251222933
			36.1446420886279	-15.455251222933
			36.1301028118425	-15.4697904997185
			36.115563535057	-15.4697904997185
			36.1010242582716	-15.4697904997185
			36.0864849814861	-15.4697904997185
			36.0719457047007	-15.4843297765039
			36.0574064279152	-15.4843297765039
			36.0428671511298	-15.4843297765039
			36.0283278743443	-15.4843297765039
			36.0137885975589	-15.4843297765039
			35.9992493207734	-15.4988690532894
			35.984710043988	-15.4988690532894
			35.9701707672025	-15.4988690532894
			35.9556314904171	-15.4988690532894
			35.9410922136316	-15.4988690532894
			35.9265529368462	-15.5134083300748
			35.9120136600607	-15.5134083300748
			35.8974743832753	-15.5134083300748
			35.8829351064898	-15.5279476068603
			35.8683958297044	-15.5279476068603
			35.8538565529189	-15.5279476068603
			35.8393172761335	-15.5424868836457
			35.824777999348	-15.5570261604312
			35.8102387225626	-15.5570261604312
			35.7956994457771	-15.5715654372166
			35.7811601689917	-15.5715654372166
			35.7666208922062	-15.5861047140021
			35.7520816154208	-15.6006439907875
			35.7375423386353	-15.615183267573
			35.7230030618499	-15.6297225443584
			35.7084637850644	-15.6442618211439
			35.693924508279	-15.6588010979293
			35.6793852314935	-15.6733403747148
		</Outline4>
	</curves.scaled>
	<ruler.points type=matrix rownames=TRUE colnames=FALSE nrow=2 ncol=2 as.numeric=TRUE >
		Ruler point 1	2870	2169
		Ruler point 2	2183	2202
	</ruler.points>
</shapes>

