<shapes type=list>
	<ruler.pixel type=vector names=FALSE length=1 as.numeric=TRUE >689.018141996276</ruler.pixel>
	<ruler.interval type=vector names=FALSE length=1 as.numeric=TRUE >10</ruler.interval>
	<scaling.units type=vector names=FALSE length=1 as.numeric=FALSE >mm</scaling.units>
	<scaling type=vector names=FALSE length=1 as.numeric=TRUE >0.014513405947523</scaling>
	<landmarks.pixel type=matrix rownames=TRUE colnames=FALSE nrow=4 ncol=2 as.numeric=TRUE >
		Labial	2596	1974
		Posterior	2496	1921
		Lingual	2555	1826
		Anterior	2655	1878
	</landmarks.pixel>
	<landmarks.scaled type=matrix rownames=TRUE colnames=FALSE nrow=4 ncol=2 as.numeric=TRUE >
		Labial	37.6768018397697	-28.6494633404104
		Posterior	36.2254612450174	-27.8802528251917
		Lingual	37.0817521959213	-26.501479260177
		Anterior	38.5330927906736	-27.2561763694482
	</landmarks.scaled>
	<curves.control type=list>
		<Outline1 type=matrix rownames=FALSE colnames=FALSE nrow=15 ncol=2 as.numeric=TRUE >
			2596	1974
			2586	1980
			2577	1985
			2567	1990
			2557	1994
			2548	1996
			2539	1997
			2532	1995
			2524	1991
			2516	1987
			2509	1982
			2503	1977
			2498	1970
			2495	1963
			2496	1921
		</Outline1>
		<Outline2 type=matrix rownames=FALSE colnames=FALSE nrow=15 ncol=2 as.numeric=TRUE >
			2496	1921
			2495	1911
			2493	1899
			2491	1888
			2491	1878
			2493	1868
			2497	1860
			2503	1852
			2512	1845
			2519	1840
			2525	1836
			2532	1831
			2539	1829
			2546	1827
			2555	1826
		</Outline2>
		<Outline3 type=matrix rownames=FALSE colnames=FALSE nrow=17 ncol=2 as.numeric=TRUE >
			2555	1826
			2566	1825
			2575	1825
			2582	1824
			2590	1823
			2599	1822
			2608	1822
			2618	1824
			2625	1827
			2631	1831
			2636	1836
			2640	1842
			2644	1849
			2648	1857
			2651	1864
			2653	1870
			2655	1878
		</Outline3>
		<Outline4 type=matrix rownames=FALSE colnames=FALSE nrow=15 ncol=2 as.numeric=TRUE >
			2655	1878
			2657	1887
			2657	1898
			2657	1907
			2656	1915
			2653	1925
			2650	1934
			2645	1943
			2641	1948
			2637	1952
			2631	1957
			2623	1962
			2617	1965
			2607	1968
			2596	1974
		</Outline4>
	</curves.control>
	<curves.pixel type=list>
		<Outline1 type=matrix rownames=FALSE colnames=FALSE nrow=150 ncol=2 as.numeric=TRUE >
			2596	1974
			2595	1975
			2594	1975
			2593	1976
			2592	1977
			2591	1977
			2590	1978
			2589	1978
			2588	1979
			2587	1979
			2586	1980
			2585	1981
			2584	1981
			2583	1982
			2582	1982
			2581	1983
			2580	1983
			2579	1984
			2578	1984
			2577	1985
			2576	1985
			2575	1986
			2574	1987
			2573	1987
			2572	1988
			2571	1988
			2570	1988
			2569	1989
			2568	1989
			2567	1990
			2566	1990
			2565	1991
			2564	1991
			2563	1992
			2562	1992
			2561	1992
			2560	1993
			2559	1993
			2558	1994
			2557	1994
			2556	1994
			2555	1994
			2554	1995
			2553	1995
			2552	1995
			2551	1995
			2550	1995
			2549	1996
			2548	1996
			2547	1996
			2546	1996
			2545	1996
			2544	1996
			2543	1997
			2542	1997
			2541	1997
			2540	1997
			2539	1997
			2538	1997
			2537	1996
			2536	1996
			2535	1996
			2534	1995
			2533	1995
			2532	1995
			2531	1994
			2530	1994
			2529	1993
			2528	1993
			2527	1992
			2526	1992
			2525	1992
			2524	1991
			2523	1990
			2522	1990
			2521	1989
			2520	1989
			2519	1988
			2518	1988
			2517	1987
			2516	1987
			2515	1986
			2514	1985
			2513	1985
			2512	1984
			2511	1984
			2510	1983
			2509	1982
			2508	1981
			2507	1980
			2506	1979
			2505	1978
			2504	1978
			2503	1977
			2503	1976
			2502	1975
			2501	1974
			2500	1973
			2499	1972
			2498	1971
			2498	1970
			2498	1969
			2497	1968
			2497	1967
			2497	1966
			2497	1965
			2497	1964
			2497	1963
			2496	1962
			2496	1961
			2496	1960
			2496	1959
			2496	1958
			2496	1957
			2496	1956
			2496	1955
			2496	1954
			2496	1953
			2496	1952
			2496	1951
			2496	1950
			2496	1949
			2496	1948
			2496	1947
			2496	1946
			2496	1945
			2496	1944
			2496	1943
			2496	1942
			2496	1941
			2496	1940
			2496	1939
			2496	1938
			2496	1937
			2496	1936
			2496	1935
			2496	1934
			2496	1933
			2496	1932
			2496	1931
			2496	1930
			2496	1929
			2496	1928
			2496	1927
			2496	1926
			2496	1925
			2496	1924
			2496	1923
			2496	1922
			2496	1921
		</Outline1>
		<Outline2 type=matrix rownames=FALSE colnames=FALSE nrow=126 ncol=2 as.numeric=TRUE >
			2496	1921
			2496	1920
			2496	1919
			2496	1918
			2496	1917
			2495	1916
			2495	1915
			2495	1914
			2495	1913
			2495	1912
			2495	1911
			2495	1910
			2495	1909
			2494	1908
			2494	1907
			2494	1906
			2494	1905
			2494	1904
			2494	1903
			2493	1902
			2493	1901
			2493	1900
			2493	1899
			2493	1898
			2493	1897
			2493	1896
			2492	1896
			2492	1895
			2492	1894
			2492	1893
			2492	1892
			2492	1891
			2492	1890
			2492	1889
			2491	1888
			2491	1887
			2491	1886
			2491	1885
			2491	1884
			2491	1883
			2491	1882
			2491	1881
			2491	1880
			2491	1879
			2491	1878
			2491	1877
			2491	1876
			2492	1875
			2492	1874
			2492	1873
			2492	1872
			2493	1871
			2493	1870
			2493	1869
			2494	1868
			2494	1867
			2495	1866
			2495	1865
			2495	1864
			2496	1863
			2496	1862
			2497	1861
			2497	1860
			2498	1859
			2498	1858
			2499	1857
			2500	1856
			2501	1855
			2502	1855
			2502	1854
			2503	1853
			2504	1852
			2505	1851
			2506	1850
			2507	1849
			2508	1849
			2509	1848
			2510	1847
			2511	1846
			2512	1845
			2513	1845
			2513	1844
			2514	1844
			2515	1843
			2516	1842
			2517	1841
			2518	1841
			2519	1840
			2520	1839
			2521	1839
			2522	1838
			2523	1837
			2524	1836
			2525	1836
			2526	1835
			2527	1835
			2527	1834
			2528	1834
			2529	1834
			2530	1833
			2531	1832
			2532	1832
			2533	1831
			2534	1831
			2535	1830
			2536	1830
			2537	1830
			2538	1829
			2539	1829
			2540	1829
			2541	1828
			2542	1828
			2543	1828
			2544	1828
			2545	1828
			2545	1827
			2546	1827
			2547	1827
			2548	1827
			2549	1827
			2550	1827
			2551	1827
			2552	1826
			2553	1826
			2554	1826
			2555	1826
		</Outline2>
		<Outline3 type=matrix rownames=FALSE colnames=FALSE nrow=127 ncol=2 as.numeric=TRUE >
			2555	1826
			2556	1826
			2557	1826
			2558	1826
			2559	1826
			2560	1826
			2561	1826
			2562	1825
			2563	1825
			2564	1825
			2565	1825
			2566	1825
			2567	1825
			2568	1825
			2569	1825
			2570	1825
			2571	1825
			2572	1825
			2573	1825
			2574	1825
			2575	1825
			2576	1825
			2577	1825
			2578	1825
			2579	1824
			2580	1824
			2581	1824
			2582	1824
			2583	1824
			2584	1824
			2585	1824
			2586	1824
			2587	1823
			2588	1823
			2589	1823
			2590	1823
			2591	1823
			2592	1823
			2593	1823
			2594	1823
			2595	1822
			2596	1822
			2597	1822
			2598	1822
			2599	1822
			2600	1822
			2601	1822
			2602	1822
			2603	1822
			2604	1822
			2605	1822
			2606	1822
			2607	1822
			2608	1822
			2609	1822
			2610	1822
			2611	1823
			2612	1823
			2613	1823
			2614	1823
			2615	1824
			2616	1824
			2617	1824
			2618	1825
			2619	1825
			2620	1825
			2621	1825
			2622	1826
			2623	1826
			2624	1827
			2625	1827
			2626	1828
			2627	1828
			2627	1829
			2628	1829
			2629	1830
			2630	1830
			2630	1831
			2631	1832
			2632	1832
			2633	1833
			2634	1834
			2635	1835
			2636	1836
			2637	1837
			2637	1838
			2638	1839
			2639	1840
			2639	1841
			2640	1842
			2640	1843
			2641	1844
			2642	1845
			2642	1846
			2643	1847
			2644	1848
			2644	1849
			2645	1850
			2645	1851
			2645	1852
			2646	1852
			2646	1853
			2646	1854
			2647	1855
			2647	1856
			2648	1857
			2648	1858
			2649	1859
			2649	1860
			2650	1861
			2650	1862
			2651	1863
			2651	1864
			2651	1865
			2652	1866
			2652	1867
			2652	1868
			2653	1869
			2653	1870
			2653	1871
			2653	1872
			2654	1873
			2654	1874
			2654	1875
			2655	1876
			2655	1877
			2655	1878
		</Outline3>
		<Outline4 type=matrix rownames=FALSE colnames=FALSE nrow=128 ncol=2 as.numeric=TRUE >
			2655	1878
			2655	1879
			2655	1880
			2656	1881
			2656	1882
			2656	1883
			2656	1884
			2656	1885
			2656	1886
			2656	1887
			2657	1888
			2657	1889
			2657	1890
			2657	1891
			2657	1892
			2657	1893
			2657	1894
			2657	1895
			2657	1896
			2657	1897
			2657	1898
			2657	1899
			2657	1900
			2657	1901
			2657	1902
			2657	1903
			2657	1904
			2657	1905
			2657	1906
			2657	1907
			2657	1908
			2657	1909
			2657	1910
			2656	1911
			2656	1912
			2656	1913
			2656	1914
			2656	1915
			2656	1916
			2655	1917
			2655	1918
			2655	1919
			2654	1920
			2654	1921
			2654	1922
			2654	1923
			2653	1923
			2653	1924
			2653	1925
			2653	1926
			2652	1927
			2652	1928
			2652	1929
			2651	1930
			2651	1931
			2651	1932
			2650	1933
			2650	1934
			2650	1935
			2649	1936
			2649	1937
			2648	1937
			2648	1938
			2647	1939
			2647	1940
			2646	1940
			2646	1941
			2645	1942
			2645	1943
			2644	1943
			2644	1944
			2644	1945
			2643	1945
			2643	1946
			2642	1946
			2642	1947
			2641	1947
			2641	1948
			2640	1949
			2639	1950
			2638	1951
			2637	1952
			2636	1953
			2635	1953
			2635	1954
			2634	1954
			2633	1955
			2632	1956
			2632	1957
			2631	1957
			2630	1958
			2629	1958
			2629	1959
			2628	1959
			2627	1959
			2627	1960
			2626	1960
			2625	1960
			2625	1961
			2624	1961
			2623	1962
			2622	1962
			2621	1963
			2620	1963
			2619	1964
			2618	1965
			2617	1965
			2616	1965
			2615	1966
			2614	1966
			2613	1966
			2612	1967
			2611	1967
			2610	1967
			2609	1968
			2608	1968
			2607	1969
			2606	1969
			2605	1970
			2604	1970
			2603	1970
			2602	1971
			2601	1971
			2600	1972
			2599	1972
			2598	1973
			2597	1973
			2596	1974
		</Outline4>
	</curves.pixel>
	<curves.scaled type=list>
		<Outline1 type=matrix rownames=FALSE colnames=FALSE nrow=150 ncol=2 as.numeric=TRUE >
			37.6768018397697	-28.6494633404104
			37.6622884338222	-28.6639767463579
			37.6477750278747	-28.6639767463579
			37.6332616219272	-28.6784901523055
			37.6187482159796	-28.693003558253
			37.6042348100321	-28.693003558253
			37.5897214040846	-28.7075169642005
			37.5752079981371	-28.7075169642005
			37.5606945921895	-28.722030370148
			37.546181186242	-28.722030370148
			37.5316677802945	-28.7365437760956
			37.517154374347	-28.7510571820431
			37.5026409683994	-28.7510571820431
			37.4881275624519	-28.7655705879906
			37.4736141565044	-28.7655705879906
			37.4591007505569	-28.7800839939381
			37.4445873446094	-28.7800839939381
			37.4300739386618	-28.7945973998856
			37.4155605327143	-28.7945973998856
			37.4010471267668	-28.8091108058332
			37.3865337208193	-28.8091108058332
			37.3720203148717	-28.8236242117807
			37.3575069089242	-28.8381376177282
			37.3429935029767	-28.8381376177282
			37.3284800970292	-28.8526510236757
			37.3139666910816	-28.8526510236757
			37.2994532851341	-28.8526510236757
			37.2849398791866	-28.8671644296233
			37.2704264732391	-28.8671644296233
			37.2559130672916	-28.8816778355708
			37.241399661344	-28.8816778355708
			37.2268862553965	-28.8961912415183
			37.212372849449	-28.8961912415183
			37.1978594435015	-28.9107046474658
			37.1833460375539	-28.9107046474658
			37.1688326316064	-28.9107046474658
			37.1543192256589	-28.9252180534134
			37.1398058197114	-28.9252180534134
			37.1252924137639	-28.9397314593609
			37.1107790078163	-28.9397314593609
			37.0962656018688	-28.9397314593609
			37.0817521959213	-28.9397314593609
			37.0672387899738	-28.9542448653084
			37.0527253840262	-28.9542448653084
			37.0382119780787	-28.9542448653084
			37.0236985721312	-28.9542448653084
			37.0091851661837	-28.9542448653084
			36.9946717602361	-28.9687582712559
			36.9801583542886	-28.9687582712559
			36.9656449483411	-28.9687582712559
			36.9511315423936	-28.9687582712559
			36.9366181364461	-28.9687582712559
			36.9221047304985	-28.9687582712559
			36.907591324551	-28.9832716772034
			36.8930779186035	-28.9832716772034
			36.878564512656	-28.9832716772034
			36.8640511067084	-28.9832716772034
			36.8495377007609	-28.9832716772034
			36.8350242948134	-28.9832716772034
			36.8205108888659	-28.9687582712559
			36.8059974829183	-28.9687582712559
			36.7914840769708	-28.9687582712559
			36.7769706710233	-28.9542448653084
			36.7624572650758	-28.9542448653084
			36.7479438591282	-28.9542448653084
			36.7334304531807	-28.9397314593609
			36.7189170472332	-28.9397314593609
			36.7044036412857	-28.9252180534134
			36.6898902353382	-28.9252180534134
			36.6753768293906	-28.9107046474658
			36.6608634234431	-28.9107046474658
			36.6463500174956	-28.9107046474658
			36.6318366115481	-28.8961912415183
			36.6173232056005	-28.8816778355708
			36.602809799653	-28.8816778355708
			36.5882963937055	-28.8671644296233
			36.573782987758	-28.8671644296233
			36.5592695818105	-28.8526510236757
			36.5447561758629	-28.8526510236757
			36.5302427699154	-28.8381376177282
			36.5157293639679	-28.8381376177282
			36.5012159580204	-28.8236242117807
			36.4867025520728	-28.8091108058332
			36.4721891461253	-28.8091108058332
			36.4576757401778	-28.7945973998856
			36.4431623342303	-28.7945973998856
			36.4286489282827	-28.7800839939381
			36.4141355223352	-28.7655705879906
			36.3996221163877	-28.7510571820431
			36.3851087104402	-28.7365437760956
			36.3705953044927	-28.722030370148
			36.3560818985451	-28.7075169642005
			36.3415684925976	-28.7075169642005
			36.3270550866501	-28.693003558253
			36.3270550866501	-28.6784901523055
			36.3125416807026	-28.6639767463579
			36.298028274755	-28.6494633404104
			36.2835148688075	-28.6349499344629
			36.26900146286	-28.6204365285154
			36.2544880569125	-28.6059231225678
			36.2544880569125	-28.5914097166203
			36.2544880569125	-28.5768963106728
			36.2399746509649	-28.5623829047253
			36.2399746509649	-28.5478694987778
			36.2399746509649	-28.5333560928302
			36.2399746509649	-28.5188426868827
			36.2399746509649	-28.5043292809352
			36.2399746509649	-28.4898158749877
			36.2254612450174	-28.4753024690401
			36.2254612450174	-28.4607890630926
			36.2254612450174	-28.4462756571451
			36.2254612450174	-28.4317622511976
			36.2254612450174	-28.41724884525
			36.2254612450174	-28.4027354393025
			36.2254612450174	-28.388222033355
			36.2254612450174	-28.3737086274075
			36.2254612450174	-28.35919522146
			36.2254612450174	-28.3446818155124
			36.2254612450174	-28.3301684095649
			36.2254612450174	-28.3156550036174
			36.2254612450174	-28.3011415976699
			36.2254612450174	-28.2866281917223
			36.2254612450174	-28.2721147857748
			36.2254612450174	-28.2576013798273
			36.2254612450174	-28.2430879738798
			36.2254612450174	-28.2285745679322
			36.2254612450174	-28.2140611619847
			36.2254612450174	-28.1995477560372
			36.2254612450174	-28.1850343500897
			36.2254612450174	-28.1705209441422
			36.2254612450174	-28.1560075381946
			36.2254612450174	-28.1414941322471
			36.2254612450174	-28.1269807262996
			36.2254612450174	-28.1124673203521
			36.2254612450174	-28.0979539144045
			36.2254612450174	-28.083440508457
			36.2254612450174	-28.0689271025095
			36.2254612450174	-28.054413696562
			36.2254612450174	-28.0399002906144
			36.2254612450174	-28.0253868846669
			36.2254612450174	-28.0108734787194
			36.2254612450174	-27.9963600727719
			36.2254612450174	-27.9818466668244
			36.2254612450174	-27.9673332608768
			36.2254612450174	-27.9528198549293
			36.2254612450174	-27.9383064489818
			36.2254612450174	-27.9237930430343
			36.2254612450174	-27.9092796370867
			36.2254612450174	-27.8947662311392
			36.2254612450174	-27.8802528251917
		</Outline1>
		<Outline2 type=matrix rownames=FALSE colnames=FALSE nrow=126 ncol=2 as.numeric=TRUE >
			36.2254612450174	-27.8802528251917
			36.2254612450174	-27.8657394192442
			36.2254612450174	-27.8512260132966
			36.2254612450174	-27.8367126073491
			36.2254612450174	-27.8221992014016
			36.2109478390699	-27.8076857954541
			36.2109478390699	-27.7931723895066
			36.2109478390699	-27.778658983559
			36.2109478390699	-27.7641455776115
			36.2109478390699	-27.749632171664
			36.2109478390699	-27.7351187657165
			36.2109478390699	-27.7206053597689
			36.2109478390699	-27.7060919538214
			36.1964344331224	-27.6915785478739
			36.1964344331224	-27.6770651419264
			36.1964344331224	-27.6625517359789
			36.1964344331224	-27.6480383300313
			36.1964344331224	-27.6335249240838
			36.1964344331224	-27.6190115181363
			36.1819210271749	-27.6044981121888
			36.1819210271749	-27.5899847062412
			36.1819210271749	-27.5754713002937
			36.1819210271749	-27.5609578943462
			36.1819210271749	-27.5464444883987
			36.1819210271749	-27.5319310824511
			36.1819210271749	-27.5174176765036
			36.1674076212273	-27.5174176765036
			36.1674076212273	-27.5029042705561
			36.1674076212273	-27.4883908646086
			36.1674076212273	-27.4738774586611
			36.1674076212273	-27.4593640527135
			36.1674076212273	-27.444850646766
			36.1674076212273	-27.4303372408185
			36.1674076212273	-27.415823834871
			36.1528942152798	-27.4013104289234
			36.1528942152798	-27.3867970229759
			36.1528942152798	-27.3722836170284
			36.1528942152798	-27.3577702110809
			36.1528942152798	-27.3432568051333
			36.1528942152798	-27.3287433991858
			36.1528942152798	-27.3142299932383
			36.1528942152798	-27.2997165872908
			36.1528942152798	-27.2852031813433
			36.1528942152798	-27.2706897753957
			36.1528942152798	-27.2561763694482
			36.1528942152798	-27.2416629635007
			36.1528942152798	-27.2271495575532
			36.1674076212273	-27.2126361516056
			36.1674076212273	-27.1981227456581
			36.1674076212273	-27.1836093397106
			36.1674076212273	-27.1690959337631
			36.1819210271749	-27.1545825278155
			36.1819210271749	-27.140069121868
			36.1819210271749	-27.1255557159205
			36.1964344331224	-27.111042309973
			36.1964344331224	-27.0965289040255
			36.2109478390699	-27.0820154980779
			36.2109478390699	-27.0675020921304
			36.2109478390699	-27.0529886861829
			36.2254612450174	-27.0384752802354
			36.2254612450174	-27.0239618742878
			36.2399746509649	-27.0094484683403
			36.2399746509649	-26.9949350623928
			36.2544880569125	-26.9804216564453
			36.2544880569125	-26.9659082504977
			36.26900146286	-26.9513948445502
			36.2835148688075	-26.9368814386027
			36.298028274755	-26.9223680326552
			36.3125416807026	-26.9223680326552
			36.3125416807026	-26.9078546267077
			36.3270550866501	-26.8933412207601
			36.3415684925976	-26.8788278148126
			36.3560818985451	-26.8643144088651
			36.3705953044927	-26.8498010029176
			36.3851087104402	-26.83528759697
			36.3996221163877	-26.83528759697
			36.4141355223352	-26.8207741910225
			36.4286489282827	-26.806260785075
			36.4431623342303	-26.7917473791275
			36.4576757401778	-26.7772339731799
			36.4721891461253	-26.7772339731799
			36.4721891461253	-26.7627205672324
			36.4867025520728	-26.7627205672324
			36.5012159580204	-26.7482071612849
			36.5157293639679	-26.7336937553374
			36.5302427699154	-26.7191803493899
			36.5447561758629	-26.7191803493899
			36.5592695818105	-26.7046669434423
			36.573782987758	-26.6901535374948
			36.5882963937055	-26.6901535374948
			36.602809799653	-26.6756401315473
			36.6173232056005	-26.6611267255998
			36.6318366115481	-26.6466133196522
			36.6463500174956	-26.6466133196522
			36.6608634234431	-26.6320999137047
			36.6753768293906	-26.6320999137047
			36.6753768293906	-26.6175865077572
			36.6898902353382	-26.6175865077572
			36.7044036412857	-26.6175865077572
			36.7189170472332	-26.6030731018097
			36.7334304531807	-26.5885596958621
			36.7479438591282	-26.5885596958621
			36.7624572650758	-26.5740462899146
			36.7769706710233	-26.5740462899146
			36.7914840769708	-26.5595328839671
			36.8059974829183	-26.5595328839671
			36.8205108888659	-26.5595328839671
			36.8350242948134	-26.5450194780196
			36.8495377007609	-26.5450194780196
			36.8640511067084	-26.5450194780196
			36.878564512656	-26.5305060720721
			36.8930779186035	-26.5305060720721
			36.907591324551	-26.5305060720721
			36.9221047304985	-26.5305060720721
			36.9366181364461	-26.5305060720721
			36.9366181364461	-26.5159926661245
			36.9511315423936	-26.5159926661245
			36.9656449483411	-26.5159926661245
			36.9801583542886	-26.5159926661245
			36.9946717602361	-26.5159926661245
			37.0091851661837	-26.5159926661245
			37.0236985721312	-26.5159926661245
			37.0382119780787	-26.501479260177
			37.0527253840262	-26.501479260177
			37.0672387899738	-26.501479260177
			37.0817521959213	-26.501479260177
		</Outline2>
		<Outline3 type=matrix rownames=FALSE colnames=FALSE nrow=127 ncol=2 as.numeric=TRUE >
			37.0817521959213	-26.501479260177
			37.0962656018688	-26.501479260177
			37.1107790078163	-26.501479260177
			37.1252924137639	-26.501479260177
			37.1398058197114	-26.501479260177
			37.1543192256589	-26.501479260177
			37.1688326316064	-26.501479260177
			37.1833460375539	-26.4869658542295
			37.1978594435015	-26.4869658542295
			37.212372849449	-26.4869658542295
			37.2268862553965	-26.4869658542295
			37.241399661344	-26.4869658542295
			37.2559130672916	-26.4869658542295
			37.2704264732391	-26.4869658542295
			37.2849398791866	-26.4869658542295
			37.2994532851341	-26.4869658542295
			37.3139666910816	-26.4869658542295
			37.3284800970292	-26.4869658542295
			37.3429935029767	-26.4869658542295
			37.3575069089242	-26.4869658542295
			37.3720203148717	-26.4869658542295
			37.3865337208193	-26.4869658542295
			37.4010471267668	-26.4869658542295
			37.4155605327143	-26.4869658542295
			37.4300739386618	-26.472452448282
			37.4445873446094	-26.472452448282
			37.4591007505569	-26.472452448282
			37.4736141565044	-26.472452448282
			37.4881275624519	-26.472452448282
			37.5026409683994	-26.472452448282
			37.517154374347	-26.472452448282
			37.5316677802945	-26.472452448282
			37.546181186242	-26.4579390423344
			37.5606945921895	-26.4579390423344
			37.5752079981371	-26.4579390423344
			37.5897214040846	-26.4579390423344
			37.6042348100321	-26.4579390423344
			37.6187482159796	-26.4579390423344
			37.6332616219272	-26.4579390423344
			37.6477750278747	-26.4579390423344
			37.6622884338222	-26.4434256363869
			37.6768018397697	-26.4434256363869
			37.6913152457172	-26.4434256363869
			37.7058286516648	-26.4434256363869
			37.7203420576123	-26.4434256363869
			37.7348554635598	-26.4434256363869
			37.7493688695073	-26.4434256363869
			37.7638822754549	-26.4434256363869
			37.7783956814024	-26.4434256363869
			37.7929090873499	-26.4434256363869
			37.8074224932974	-26.4434256363869
			37.821935899245	-26.4434256363869
			37.8364493051925	-26.4434256363869
			37.85096271114	-26.4434256363869
			37.8654761170875	-26.4434256363869
			37.879989523035	-26.4434256363869
			37.8945029289826	-26.4579390423344
			37.9090163349301	-26.4579390423344
			37.9235297408776	-26.4579390423344
			37.9380431468251	-26.4579390423344
			37.9525565527727	-26.472452448282
			37.9670699587202	-26.472452448282
			37.9815833646677	-26.472452448282
			37.9960967706152	-26.4869658542295
			38.0106101765627	-26.4869658542295
			38.0251235825103	-26.4869658542295
			38.0396369884578	-26.4869658542295
			38.0541503944053	-26.501479260177
			38.0686638003528	-26.501479260177
			38.0831772063004	-26.5159926661245
			38.0976906122479	-26.5159926661245
			38.1122040181954	-26.5305060720721
			38.1267174241429	-26.5305060720721
			38.1267174241429	-26.5450194780196
			38.1412308300905	-26.5450194780196
			38.155744236038	-26.5595328839671
			38.1702576419855	-26.5595328839671
			38.1702576419855	-26.5740462899146
			38.184771047933	-26.5885596958621
			38.1992844538806	-26.5885596958621
			38.2137978598281	-26.6030731018097
			38.2283112657756	-26.6175865077572
			38.2428246717231	-26.6320999137047
			38.2573380776706	-26.6466133196522
			38.2718514836182	-26.6611267255998
			38.2718514836182	-26.6756401315473
			38.2863648895657	-26.6901535374948
			38.3008782955132	-26.7046669434423
			38.3008782955132	-26.7191803493899
			38.3153917014607	-26.7336937553374
			38.3153917014607	-26.7482071612849
			38.3299051074083	-26.7627205672324
			38.3444185133558	-26.7772339731799
			38.3444185133558	-26.7917473791275
			38.3589319193033	-26.806260785075
			38.3734453252508	-26.8207741910225
			38.3734453252508	-26.83528759697
			38.3879587311984	-26.8498010029176
			38.3879587311984	-26.8643144088651
			38.3879587311984	-26.8788278148126
			38.4024721371459	-26.8788278148126
			38.4024721371459	-26.8933412207601
			38.4024721371459	-26.9078546267077
			38.4169855430934	-26.9223680326552
			38.4169855430934	-26.9368814386027
			38.4314989490409	-26.9513948445502
			38.4314989490409	-26.9659082504977
			38.4460123549884	-26.9804216564453
			38.4460123549884	-26.9949350623928
			38.460525760936	-27.0094484683403
			38.460525760936	-27.0239618742878
			38.4750391668835	-27.0384752802354
			38.4750391668835	-27.0529886861829
			38.4750391668835	-27.0675020921304
			38.489552572831	-27.0820154980779
			38.489552572831	-27.0965289040255
			38.489552572831	-27.111042309973
			38.5040659787785	-27.1255557159205
			38.5040659787785	-27.140069121868
			38.5040659787785	-27.1545825278155
			38.5040659787785	-27.1690959337631
			38.5185793847261	-27.1836093397106
			38.5185793847261	-27.1981227456581
			38.5185793847261	-27.2126361516056
			38.5330927906736	-27.2271495575532
			38.5330927906736	-27.2416629635007
			38.5330927906736	-27.2561763694482
		</Outline3>
		<Outline4 type=matrix rownames=FALSE colnames=FALSE nrow=128 ncol=2 as.numeric=TRUE >
			38.5330927906736	-27.2561763694482
			38.5330927906736	-27.2706897753957
			38.5330927906736	-27.2852031813433
			38.5476061966211	-27.2997165872908
			38.5476061966211	-27.3142299932383
			38.5476061966211	-27.3287433991858
			38.5476061966211	-27.3432568051333
			38.5476061966211	-27.3577702110809
			38.5476061966211	-27.3722836170284
			38.5476061966211	-27.3867970229759
			38.5621196025686	-27.4013104289234
			38.5621196025686	-27.415823834871
			38.5621196025686	-27.4303372408185
			38.5621196025686	-27.444850646766
			38.5621196025686	-27.4593640527135
			38.5621196025686	-27.4738774586611
			38.5621196025686	-27.4883908646086
			38.5621196025686	-27.5029042705561
			38.5621196025686	-27.5174176765036
			38.5621196025686	-27.5319310824511
			38.5621196025686	-27.5464444883987
			38.5621196025686	-27.5609578943462
			38.5621196025686	-27.5754713002937
			38.5621196025686	-27.5899847062412
			38.5621196025686	-27.6044981121888
			38.5621196025686	-27.6190115181363
			38.5621196025686	-27.6335249240838
			38.5621196025686	-27.6480383300313
			38.5621196025686	-27.6625517359789
			38.5621196025686	-27.6770651419264
			38.5621196025686	-27.6915785478739
			38.5621196025686	-27.7060919538214
			38.5621196025686	-27.7206053597689
			38.5476061966211	-27.7351187657165
			38.5476061966211	-27.749632171664
			38.5476061966211	-27.7641455776115
			38.5476061966211	-27.778658983559
			38.5476061966211	-27.7931723895066
			38.5476061966211	-27.8076857954541
			38.5330927906736	-27.8221992014016
			38.5330927906736	-27.8367126073491
			38.5330927906736	-27.8512260132966
			38.5185793847261	-27.8657394192442
			38.5185793847261	-27.8802528251917
			38.5185793847261	-27.8947662311392
			38.5185793847261	-27.9092796370867
			38.5040659787785	-27.9092796370867
			38.5040659787785	-27.9237930430343
			38.5040659787785	-27.9383064489818
			38.5040659787785	-27.9528198549293
			38.489552572831	-27.9673332608768
			38.489552572831	-27.9818466668244
			38.489552572831	-27.9963600727719
			38.4750391668835	-28.0108734787194
			38.4750391668835	-28.0253868846669
			38.4750391668835	-28.0399002906144
			38.460525760936	-28.054413696562
			38.460525760936	-28.0689271025095
			38.460525760936	-28.083440508457
			38.4460123549884	-28.0979539144045
			38.4460123549884	-28.1124673203521
			38.4314989490409	-28.1124673203521
			38.4314989490409	-28.1269807262996
			38.4169855430934	-28.1414941322471
			38.4169855430934	-28.1560075381946
			38.4024721371459	-28.1560075381946
			38.4024721371459	-28.1705209441422
			38.3879587311984	-28.1850343500897
			38.3879587311984	-28.1995477560372
			38.3734453252508	-28.1995477560372
			38.3734453252508	-28.2140611619847
			38.3734453252508	-28.2285745679322
			38.3589319193033	-28.2285745679322
			38.3589319193033	-28.2430879738798
			38.3444185133558	-28.2430879738798
			38.3444185133558	-28.2576013798273
			38.3299051074083	-28.2576013798273
			38.3299051074083	-28.2721147857748
			38.3153917014607	-28.2866281917223
			38.3008782955132	-28.3011415976699
			38.2863648895657	-28.3156550036174
			38.2718514836182	-28.3301684095649
			38.2573380776706	-28.3446818155124
			38.2428246717231	-28.3446818155124
			38.2428246717231	-28.35919522146
			38.2283112657756	-28.35919522146
			38.2137978598281	-28.3737086274075
			38.1992844538806	-28.388222033355
			38.1992844538806	-28.4027354393025
			38.184771047933	-28.4027354393025
			38.1702576419855	-28.41724884525
			38.155744236038	-28.41724884525
			38.155744236038	-28.4317622511976
			38.1412308300905	-28.4317622511976
			38.1267174241429	-28.4317622511976
			38.1267174241429	-28.4462756571451
			38.1122040181954	-28.4462756571451
			38.0976906122479	-28.4462756571451
			38.0976906122479	-28.4607890630926
			38.0831772063004	-28.4607890630926
			38.0686638003528	-28.4753024690401
			38.0541503944053	-28.4753024690401
			38.0396369884578	-28.4898158749877
			38.0251235825103	-28.4898158749877
			38.0106101765627	-28.5043292809352
			37.9960967706152	-28.5188426868827
			37.9815833646677	-28.5188426868827
			37.9670699587202	-28.5188426868827
			37.9525565527727	-28.5333560928302
			37.9380431468251	-28.5333560928302
			37.9235297408776	-28.5333560928302
			37.9090163349301	-28.5478694987778
			37.8945029289826	-28.5478694987778
			37.879989523035	-28.5478694987778
			37.8654761170875	-28.5623829047253
			37.85096271114	-28.5623829047253
			37.8364493051925	-28.5768963106728
			37.821935899245	-28.5768963106728
			37.8074224932974	-28.5914097166203
			37.7929090873499	-28.5914097166203
			37.7783956814024	-28.5914097166203
			37.7638822754549	-28.6059231225678
			37.7493688695073	-28.6059231225678
			37.7348554635598	-28.6204365285154
			37.7203420576123	-28.6204365285154
			37.7058286516648	-28.6349499344629
			37.6913152457172	-28.6349499344629
			37.6768018397697	-28.6494633404104
		</Outline4>
	</curves.scaled>
	<ruler.points type=matrix rownames=TRUE colnames=FALSE nrow=2 ncol=2 as.numeric=TRUE >
		Ruler point 1	2862	348
		Ruler point 2	2173	343
	</ruler.points>
</shapes>

