<shapes type=list>
	<ruler.pixel type=vector names=FALSE length=1 as.numeric=TRUE >694.348615610343</ruler.pixel>
	<ruler.interval type=vector names=FALSE length=1 as.numeric=TRUE >10</ruler.interval>
	<scaling.units type=vector names=FALSE length=1 as.numeric=FALSE >mm</scaling.units>
	<scaling type=vector names=FALSE length=1 as.numeric=TRUE >0.0144019873809496</scaling>
	<landmarks.pixel type=matrix rownames=TRUE colnames=FALSE nrow=4 ncol=2 as.numeric=TRUE >
		Labial	2280	2274
		Posterior	2177	2220
		Lingual	2232	2122
		Anterior	2338	2174
	</landmarks.pixel>
	<landmarks.scaled type=matrix rownames=TRUE colnames=FALSE nrow=4 ncol=2 as.numeric=TRUE >
		Labial	32.8365312285651	-32.7501193042794
		Posterior	31.3531265283273	-31.9724119857082
		Lingual	32.1452358342796	-30.5610172223751
		Anterior	33.6718464966602	-31.3099205661845
	</landmarks.scaled>
	<curves.control type=list>
		<Outline1 type=matrix rownames=FALSE colnames=FALSE nrow=19 ncol=2 as.numeric=TRUE >
			2280	2274
			2276	2279
			2270	2287
			2265	2294
			2257	2299
			2249	2303
			2242	2306
			2233	2307
			2222	2306
			2212	2302
			2203	2297
			2196	2291
			2190	2285
			2185	2275
			2182	2266
			2179	2255
			2181	2240
			2180	2230
			2177	2220
		</Outline1>
		<Outline2 type=matrix rownames=FALSE colnames=FALSE nrow=17 ncol=2 as.numeric=TRUE >
			2177	2220
			2175	2209
			2175	2197
			2176	2187
			2178	2179
			2180	2172
			2182	2164
			2182	2156
			2186	2146
			2190	2138
			2196	2132
			2201	2128
			2206	2124
			2212	2123
			2218	2122
			2225	2122
			2232	2122
		</Outline2>
		<Outline3 type=matrix rownames=FALSE colnames=FALSE nrow=19 ncol=2 as.numeric=TRUE >
			2232	2122
			2242	2122
			2251	2122
			2257	2120
			2265	2119
			2272	2119
			2279	2120
			2286	2121
			2293	2120
			2302	2122
			2307	2124
			2314	2128
			2319	2133
			2323	2139
			2328	2146
			2331	2152
			2334	2159
			2336	2165
			2338	2174
		</Outline3>
		<Outline4 type=matrix rownames=FALSE colnames=FALSE nrow=17 ncol=2 as.numeric=TRUE >
			2338	2174
			2340	2185
			2341	2192
			2341	2201
			2340	2210
			2337	2220
			2333	2230
			2328	2236
			2325	2241
			2319	2247
			2313	2253
			2306	2256
			2299	2258
			2292	2259
			2286	2264
			2282	2269
			2280	2274
		</Outline4>
	</curves.control>
	<curves.pixel type=list>
		<Outline1 type=matrix rownames=FALSE colnames=FALSE nrow=170 ncol=2 as.numeric=TRUE >
			2280	2274
			2280	2275
			2279	2275
			2279	2276
			2278	2276
			2278	2277
			2277	2277
			2277	2278
			2276	2279
			2275	2280
			2274	2281
			2274	2282
			2273	2283
			2272	2284
			2272	2285
			2271	2286
			2270	2287
			2270	2288
			2269	2288
			2268	2289
			2268	2290
			2267	2291
			2266	2292
			2265	2292
			2265	2293
			2264	2294
			2263	2295
			2262	2295
			2261	2296
			2260	2297
			2259	2298
			2258	2299
			2257	2299
			2256	2299
			2255	2300
			2254	2300
			2253	2301
			2252	2302
			2251	2302
			2250	2302
			2249	2303
			2248	2303
			2247	2304
			2246	2304
			2245	2305
			2244	2305
			2243	2305
			2242	2306
			2241	2306
			2240	2306
			2239	2306
			2238	2306
			2237	2306
			2236	2306
			2235	2306
			2234	2306
			2233	2306
			2232	2306
			2231	2306
			2230	2306
			2229	2306
			2228	2306
			2227	2306
			2226	2306
			2225	2306
			2224	2306
			2223	2306
			2222	2306
			2221	2306
			2221	2305
			2220	2305
			2219	2305
			2218	2304
			2217	2304
			2216	2304
			2215	2303
			2214	2303
			2213	2302
			2212	2302
			2211	2301
			2210	2300
			2209	2300
			2208	2299
			2207	2299
			2206	2298
			2205	2298
			2204	2297
			2203	2297
			2202	2296
			2201	2295
			2200	2295
			2200	2294
			2199	2293
			2198	2293
			2198	2292
			2197	2292
			2196	2291
			2195	2290
			2194	2289
			2193	2288
			2192	2287
			2191	2286
			2190	2285
			2190	2284
			2189	2283
			2189	2282
			2188	2281
			2188	2280
			2187	2280
			2187	2279
			2187	2278
			2186	2277
			2186	2276
			2185	2275
			2185	2274
			2185	2273
			2184	2272
			2184	2271
			2183	2270
			2183	2269
			2183	2268
			2182	2267
			2182	2266
			2182	2265
			2182	2264
			2181	2264
			2181	2263
			2181	2262
			2181	2261
			2181	2260
			2181	2259
			2181	2258
			2180	2257
			2180	2256
			2180	2255
			2180	2254
			2180	2253
			2180	2252
			2180	2251
			2180	2250
			2180	2249
			2180	2248
			2180	2247
			2180	2246
			2180	2245
			2181	2244
			2181	2243
			2181	2242
			2181	2241
			2181	2240
			2181	2239
			2181	2238
			2181	2237
			2181	2236
			2180	2235
			2180	2234
			2180	2233
			2180	2232
			2180	2231
			2179	2230
			2179	2229
			2179	2228
			2179	2227
			2179	2226
			2178	2225
			2178	2224
			2178	2223
			2177	2222
			2177	2221
			2177	2220
		</Outline1>
		<Outline2 type=matrix rownames=FALSE colnames=FALSE nrow=127 ncol=2 as.numeric=TRUE >
			2177	2220
			2177	2219
			2177	2218
			2177	2217
			2176	2216
			2176	2215
			2176	2214
			2176	2213
			2176	2212
			2176	2211
			2176	2210
			2176	2209
			2175	2208
			2175	2207
			2175	2206
			2175	2205
			2175	2204
			2175	2203
			2175	2202
			2175	2201
			2175	2200
			2175	2199
			2175	2198
			2175	2197
			2175	2196
			2175	2195
			2175	2194
			2175	2193
			2176	2192
			2176	2191
			2176	2190
			2176	2189
			2176	2188
			2176	2187
			2177	2186
			2177	2185
			2177	2184
			2177	2183
			2177	2182
			2178	2181
			2178	2180
			2178	2179
			2178	2178
			2179	2177
			2179	2176
			2179	2175
			2179	2174
			2180	2173
			2180	2172
			2180	2171
			2180	2170
			2181	2169
			2181	2168
			2181	2167
			2181	2166
			2182	2166
			2182	2165
			2182	2164
			2182	2163
			2182	2162
			2182	2161
			2182	2160
			2182	2159
			2183	2158
			2183	2157
			2183	2156
			2183	2155
			2183	2154
			2184	2153
			2184	2152
			2184	2151
			2185	2150
			2185	2149
			2185	2148
			2186	2147
			2186	2146
			2186	2145
			2187	2144
			2188	2143
			2188	2142
			2189	2141
			2189	2140
			2190	2139
			2191	2138
			2191	2137
			2192	2137
			2193	2136
			2193	2135
			2194	2134
			2195	2133
			2196	2132
			2197	2131
			2198	2130
			2199	2130
			2200	2129
			2201	2128
			2202	2127
			2203	2126
			2204	2126
			2205	2125
			2206	2124
			2207	2124
			2208	2124
			2209	2123
			2210	2123
			2211	2123
			2212	2123
			2213	2123
			2214	2123
			2215	2122
			2216	2122
			2217	2122
			2218	2122
			2219	2122
			2220	2122
			2221	2122
			2222	2122
			2223	2122
			2224	2122
			2225	2122
			2226	2122
			2227	2122
			2228	2122
			2229	2122
			2230	2122
			2231	2122
			2232	2122
		</Outline2>
		<Outline3 type=matrix rownames=FALSE colnames=FALSE nrow=134 ncol=2 as.numeric=TRUE >
			2232	2122
			2233	2122
			2234	2122
			2235	2122
			2236	2122
			2237	2122
			2238	2122
			2239	2122
			2240	2122
			2241	2122
			2242	2122
			2243	2122
			2244	2122
			2245	2122
			2246	2122
			2247	2122
			2248	2122
			2249	2122
			2250	2122
			2251	2122
			2252	2122
			2253	2121
			2254	2121
			2255	2121
			2256	2120
			2257	2120
			2258	2120
			2259	2120
			2260	2120
			2261	2120
			2262	2119
			2263	2119
			2264	2119
			2265	2119
			2266	2119
			2267	2119
			2268	2119
			2269	2119
			2270	2119
			2271	2119
			2272	2119
			2273	2119
			2274	2119
			2275	2120
			2276	2120
			2277	2120
			2278	2120
			2279	2120
			2280	2120
			2281	2120
			2282	2120
			2283	2120
			2284	2120
			2285	2120
			2286	2120
			2287	2120
			2288	2120
			2289	2120
			2290	2120
			2291	2120
			2292	2120
			2293	2120
			2294	2120
			2295	2121
			2296	2121
			2297	2121
			2298	2121
			2299	2121
			2300	2122
			2301	2122
			2302	2122
			2303	2123
			2304	2123
			2305	2123
			2306	2124
			2307	2124
			2308	2125
			2309	2125
			2310	2126
			2311	2126
			2311	2127
			2312	2127
			2313	2128
			2314	2128
			2314	2129
			2315	2129
			2316	2130
			2316	2131
			2317	2131
			2318	2132
			2319	2133
			2320	2134
			2321	2135
			2321	2136
			2322	2137
			2322	2138
			2323	2139
			2324	2140
			2324	2141
			2325	2142
			2326	2143
			2327	2144
			2327	2145
			2328	2146
			2328	2147
			2329	2148
			2329	2149
			2330	2150
			2331	2151
			2331	2152
			2331	2153
			2332	2153
			2332	2154
			2332	2155
			2333	2156
			2333	2157
			2334	2158
			2334	2159
			2334	2160
			2335	2161
			2335	2162
			2335	2163
			2336	2164
			2336	2165
			2336	2166
			2336	2167
			2336	2168
			2337	2168
			2337	2169
			2337	2170
			2337	2171
			2338	2172
			2338	2173
			2338	2174
		</Outline3>
		<Outline4 type=matrix rownames=FALSE colnames=FALSE nrow=123 ncol=2 as.numeric=TRUE >
			2338	2174
			2338	2175
			2338	2176
			2339	2177
			2339	2178
			2339	2179
			2339	2180
			2339	2181
			2339	2182
			2340	2183
			2340	2184
			2340	2185
			2340	2186
			2340	2187
			2340	2188
			2341	2189
			2341	2190
			2341	2191
			2341	2192
			2341	2193
			2341	2194
			2341	2195
			2341	2196
			2341	2197
			2341	2198
			2341	2199
			2341	2200
			2341	2201
			2341	2202
			2341	2203
			2341	2204
			2340	2205
			2340	2206
			2340	2207
			2340	2208
			2340	2209
			2340	2210
			2340	2211
			2339	2212
			2339	2213
			2339	2214
			2338	2215
			2338	2216
			2338	2217
			2337	2218
			2337	2219
			2337	2220
			2336	2221
			2336	2222
			2336	2223
			2335	2224
			2335	2225
			2335	2226
			2334	2227
			2334	2228
			2333	2229
			2333	2230
			2332	2231
			2331	2232
			2330	2233
			2330	2234
			2329	2235
			2328	2236
			2328	2237
			2327	2238
			2326	2239
			2326	2240
			2325	2241
			2324	2242
			2323	2243
			2322	2244
			2321	2245
			2320	2246
			2319	2247
			2318	2248
			2317	2249
			2316	2250
			2315	2251
			2314	2252
			2313	2253
			2312	2254
			2311	2254
			2310	2254
			2309	2254
			2309	2255
			2308	2255
			2307	2255
			2307	2256
			2306	2256
			2305	2256
			2304	2256
			2303	2257
			2302	2257
			2301	2257
			2300	2258
			2299	2258
			2298	2258
			2297	2258
			2296	2259
			2295	2259
			2294	2259
			2293	2260
			2292	2260
			2291	2261
			2290	2261
			2289	2262
			2288	2262
			2287	2263
			2287	2264
			2286	2264
			2285	2265
			2285	2266
			2284	2266
			2284	2267
			2283	2268
			2283	2269
			2282	2269
			2282	2270
			2282	2271
			2281	2271
			2281	2272
			2280	2273
			2280	2274
		</Outline4>
	</curves.pixel>
	<curves.scaled type=list>
		<Outline1 type=matrix rownames=FALSE colnames=FALSE nrow=170 ncol=2 as.numeric=TRUE >
			32.8365312285651	-32.7501193042794
			32.8365312285651	-32.7645212916604
			32.8221292411842	-32.7645212916604
			32.8221292411842	-32.7789232790413
			32.8077272538032	-32.7789232790413
			32.8077272538032	-32.7933252664223
			32.7933252664223	-32.7933252664223
			32.7933252664223	-32.8077272538032
			32.7789232790413	-32.8221292411842
			32.7645212916604	-32.8365312285651
			32.7501193042794	-32.8509332159461
			32.7501193042794	-32.865335203327
			32.7357173168985	-32.879737190708
			32.7213153295175	-32.8941391780889
			32.7213153295175	-32.9085411654699
			32.7069133421366	-32.9229431528508
			32.6925113547556	-32.9373451402318
			32.6925113547556	-32.9517471276127
			32.6781093673747	-32.9517471276127
			32.6637073799937	-32.9661491149937
			32.6637073799937	-32.9805511023746
			32.6493053926128	-32.9949530897556
			32.6349034052318	-33.0093550771365
			32.6205014178509	-33.0093550771365
			32.6205014178509	-33.0237570645175
			32.6060994304699	-33.0381590518984
			32.591697443089	-33.0525610392794
			32.577295455708	-33.0525610392794
			32.5628934683271	-33.0669630266603
			32.5484914809461	-33.0813650140413
			32.5340894935652	-33.0957670014222
			32.5196875061842	-33.1101689888032
			32.5052855188033	-33.1101689888032
			32.4908835314223	-33.1101689888032
			32.4764815440414	-33.1245709761841
			32.4620795566604	-33.1245709761841
			32.4476775692795	-33.1389729635651
			32.4332755818985	-33.153374950946
			32.4188735945176	-33.153374950946
			32.4044716071366	-33.153374950946
			32.3900696197557	-33.167776938327
			32.3756676323747	-33.167776938327
			32.3612656449938	-33.1821789257079
			32.3468636576129	-33.1821789257079
			32.3324616702319	-33.1965809130889
			32.318059682851	-33.1965809130889
			32.30365769547	-33.1965809130889
			32.2892557080891	-33.2109829004698
			32.2748537207081	-33.2109829004698
			32.2604517333272	-33.2109829004698
			32.2460497459462	-33.2109829004698
			32.2316477585653	-33.2109829004698
			32.2172457711843	-33.2109829004698
			32.2028437838034	-33.2109829004698
			32.1884417964224	-33.2109829004698
			32.1740398090415	-33.2109829004698
			32.1596378216605	-33.2109829004698
			32.1452358342796	-33.2109829004698
			32.1308338468986	-33.2109829004698
			32.1164318595177	-33.2109829004698
			32.1020298721367	-33.2109829004698
			32.0876278847558	-33.2109829004698
			32.0732258973748	-33.2109829004698
			32.0588239099939	-33.2109829004698
			32.0444219226129	-33.2109829004698
			32.030019935232	-33.2109829004698
			32.015617947851	-33.2109829004698
			32.0012159604701	-33.2109829004698
			31.9868139730891	-33.2109829004698
			31.9868139730891	-33.1965809130889
			31.9724119857082	-33.1965809130889
			31.9580099983272	-33.1965809130889
			31.9436080109463	-33.1821789257079
			31.9292060235653	-33.1821789257079
			31.9148040361844	-33.1821789257079
			31.9004020488034	-33.167776938327
			31.8860000614225	-33.167776938327
			31.8715980740415	-33.153374950946
			31.8571960866606	-33.153374950946
			31.8427940992796	-33.1389729635651
			31.8283921118987	-33.1245709761841
			31.8139901245177	-33.1245709761841
			31.7995881371368	-33.1101689888032
			31.7851861497558	-33.1101689888032
			31.7707841623749	-33.0957670014222
			31.7563821749939	-33.0957670014222
			31.741980187613	-33.0813650140413
			31.727578200232	-33.0813650140413
			31.7131762128511	-33.0669630266603
			31.6987742254701	-33.0525610392794
			31.6843722380892	-33.0525610392794
			31.6843722380892	-33.0381590518984
			31.6699702507082	-33.0237570645175
			31.6555682633273	-33.0237570645175
			31.6555682633273	-33.0093550771365
			31.6411662759463	-33.0093550771365
			31.6267642885654	-32.9949530897556
			31.6123623011844	-32.9805511023746
			31.5979603138035	-32.9661491149937
			31.5835583264225	-32.9517471276127
			31.5691563390416	-32.9373451402318
			31.5547543516606	-32.9229431528508
			31.5403523642797	-32.9085411654699
			31.5403523642797	-32.8941391780889
			31.5259503768987	-32.879737190708
			31.5259503768987	-32.865335203327
			31.5115483895178	-32.8509332159461
			31.5115483895178	-32.8365312285651
			31.4971464021368	-32.8365312285651
			31.4971464021368	-32.8221292411842
			31.4971464021368	-32.8077272538032
			31.4827444147559	-32.7933252664223
			31.4827444147559	-32.7789232790413
			31.4683424273749	-32.7645212916604
			31.4683424273749	-32.7501193042794
			31.4683424273749	-32.7357173168985
			31.453940439994	-32.7213153295175
			31.453940439994	-32.7069133421366
			31.439538452613	-32.6925113547556
			31.439538452613	-32.6781093673747
			31.439538452613	-32.6637073799937
			31.4251364652321	-32.6493053926128
			31.4251364652321	-32.6349034052318
			31.4251364652321	-32.6205014178509
			31.4251364652321	-32.6060994304699
			31.4107344778511	-32.6060994304699
			31.4107344778511	-32.591697443089
			31.4107344778511	-32.577295455708
			31.4107344778511	-32.5628934683271
			31.4107344778511	-32.5484914809461
			31.4107344778511	-32.5340894935652
			31.4107344778511	-32.5196875061842
			31.3963324904702	-32.5052855188033
			31.3963324904702	-32.4908835314223
			31.3963324904702	-32.4764815440414
			31.3963324904702	-32.4620795566604
			31.3963324904702	-32.4476775692795
			31.3963324904702	-32.4332755818985
			31.3963324904702	-32.4188735945176
			31.3963324904702	-32.4044716071366
			31.3963324904702	-32.3900696197557
			31.3963324904702	-32.3756676323747
			31.3963324904702	-32.3612656449938
			31.3963324904702	-32.3468636576129
			31.3963324904702	-32.3324616702319
			31.4107344778511	-32.318059682851
			31.4107344778511	-32.30365769547
			31.4107344778511	-32.2892557080891
			31.4107344778511	-32.2748537207081
			31.4107344778511	-32.2604517333272
			31.4107344778511	-32.2460497459462
			31.4107344778511	-32.2316477585653
			31.4107344778511	-32.2172457711843
			31.4107344778511	-32.2028437838034
			31.3963324904702	-32.1884417964224
			31.3963324904702	-32.1740398090415
			31.3963324904702	-32.1596378216605
			31.3963324904702	-32.1452358342796
			31.3963324904702	-32.1308338468986
			31.3819305030892	-32.1164318595177
			31.3819305030892	-32.1020298721367
			31.3819305030892	-32.0876278847558
			31.3819305030892	-32.0732258973748
			31.3819305030892	-32.0588239099939
			31.3675285157083	-32.0444219226129
			31.3675285157083	-32.030019935232
			31.3675285157083	-32.015617947851
			31.3531265283273	-32.0012159604701
			31.3531265283273	-31.9868139730891
			31.3531265283273	-31.9724119857082
		</Outline1>
		<Outline2 type=matrix rownames=FALSE colnames=FALSE nrow=127 ncol=2 as.numeric=TRUE >
			31.3531265283273	-31.9724119857082
			31.3531265283273	-31.9580099983272
			31.3531265283273	-31.9436080109463
			31.3531265283273	-31.9292060235653
			31.3387245409464	-31.9148040361844
			31.3387245409464	-31.9004020488034
			31.3387245409464	-31.8860000614225
			31.3387245409464	-31.8715980740415
			31.3387245409464	-31.8571960866606
			31.3387245409464	-31.8427940992796
			31.3387245409464	-31.8283921118987
			31.3387245409464	-31.8139901245177
			31.3243225535654	-31.7995881371368
			31.3243225535654	-31.7851861497558
			31.3243225535654	-31.7707841623749
			31.3243225535654	-31.7563821749939
			31.3243225535654	-31.741980187613
			31.3243225535654	-31.727578200232
			31.3243225535654	-31.7131762128511
			31.3243225535654	-31.6987742254701
			31.3243225535654	-31.6843722380892
			31.3243225535654	-31.6699702507082
			31.3243225535654	-31.6555682633273
			31.3243225535654	-31.6411662759463
			31.3243225535654	-31.6267642885654
			31.3243225535654	-31.6123623011844
			31.3243225535654	-31.5979603138035
			31.3243225535654	-31.5835583264225
			31.3387245409464	-31.5691563390416
			31.3387245409464	-31.5547543516606
			31.3387245409464	-31.5403523642797
			31.3387245409464	-31.5259503768987
			31.3387245409464	-31.5115483895178
			31.3387245409464	-31.4971464021368
			31.3531265283273	-31.4827444147559
			31.3531265283273	-31.4683424273749
			31.3531265283273	-31.453940439994
			31.3531265283273	-31.439538452613
			31.3531265283273	-31.4251364652321
			31.3675285157083	-31.4107344778511
			31.3675285157083	-31.3963324904702
			31.3675285157083	-31.3819305030892
			31.3675285157083	-31.3675285157083
			31.3819305030892	-31.3531265283273
			31.3819305030892	-31.3387245409464
			31.3819305030892	-31.3243225535654
			31.3819305030892	-31.3099205661845
			31.3963324904702	-31.2955185788035
			31.3963324904702	-31.2811165914226
			31.3963324904702	-31.2667146040416
			31.3963324904702	-31.2523126166607
			31.4107344778511	-31.2379106292797
			31.4107344778511	-31.2235086418988
			31.4107344778511	-31.2091066545178
			31.4107344778511	-31.1947046671369
			31.4251364652321	-31.1947046671369
			31.4251364652321	-31.1803026797559
			31.4251364652321	-31.165900692375
			31.4251364652321	-31.151498704994
			31.4251364652321	-31.1370967176131
			31.4251364652321	-31.1226947302321
			31.4251364652321	-31.1082927428512
			31.4251364652321	-31.0938907554702
			31.439538452613	-31.0794887680893
			31.439538452613	-31.0650867807083
			31.439538452613	-31.0506847933274
			31.439538452613	-31.0362828059464
			31.439538452613	-31.0218808185655
			31.453940439994	-31.0074788311845
			31.453940439994	-30.9930768438036
			31.453940439994	-30.9786748564226
			31.4683424273749	-30.9642728690417
			31.4683424273749	-30.9498708816607
			31.4683424273749	-30.9354688942798
			31.4827444147559	-30.9210669068988
			31.4827444147559	-30.9066649195179
			31.4827444147559	-30.8922629321369
			31.4971464021368	-30.877860944756
			31.5115483895178	-30.863458957375
			31.5115483895178	-30.8490569699941
			31.5259503768987	-30.8346549826131
			31.5259503768987	-30.8202529952322
			31.5403523642797	-30.8058510078512
			31.5547543516606	-30.7914490204703
			31.5547543516606	-30.7770470330893
			31.5691563390416	-30.7770470330893
			31.5835583264225	-30.7626450457084
			31.5835583264225	-30.7482430583274
			31.5979603138035	-30.7338410709465
			31.6123623011844	-30.7194390835655
			31.6267642885654	-30.7050370961846
			31.6411662759463	-30.6906351088036
			31.6555682633273	-30.6762331214227
			31.6699702507082	-30.6762331214227
			31.6843722380892	-30.6618311340417
			31.6987742254701	-30.6474291466608
			31.7131762128511	-30.6330271592798
			31.727578200232	-30.6186251718989
			31.741980187613	-30.6186251718989
			31.7563821749939	-30.6042231845179
			31.7707841623749	-30.589821197137
			31.7851861497558	-30.589821197137
			31.7995881371368	-30.589821197137
			31.8139901245177	-30.575419209756
			31.8283921118987	-30.575419209756
			31.8427940992796	-30.575419209756
			31.8571960866606	-30.575419209756
			31.8715980740415	-30.575419209756
			31.8860000614225	-30.575419209756
			31.9004020488034	-30.5610172223751
			31.9148040361844	-30.5610172223751
			31.9292060235653	-30.5610172223751
			31.9436080109463	-30.5610172223751
			31.9580099983272	-30.5610172223751
			31.9724119857082	-30.5610172223751
			31.9868139730891	-30.5610172223751
			32.0012159604701	-30.5610172223751
			32.015617947851	-30.5610172223751
			32.030019935232	-30.5610172223751
			32.0444219226129	-30.5610172223751
			32.0588239099939	-30.5610172223751
			32.0732258973748	-30.5610172223751
			32.0876278847558	-30.5610172223751
			32.1020298721367	-30.5610172223751
			32.1164318595177	-30.5610172223751
			32.1308338468986	-30.5610172223751
			32.1452358342796	-30.5610172223751
		</Outline2>
		<Outline3 type=matrix rownames=FALSE colnames=FALSE nrow=134 ncol=2 as.numeric=TRUE >
			32.1452358342796	-30.5610172223751
			32.1596378216605	-30.5610172223751
			32.1740398090415	-30.5610172223751
			32.1884417964224	-30.5610172223751
			32.2028437838034	-30.5610172223751
			32.2172457711843	-30.5610172223751
			32.2316477585653	-30.5610172223751
			32.2460497459462	-30.5610172223751
			32.2604517333272	-30.5610172223751
			32.2748537207081	-30.5610172223751
			32.2892557080891	-30.5610172223751
			32.30365769547	-30.5610172223751
			32.318059682851	-30.5610172223751
			32.3324616702319	-30.5610172223751
			32.3468636576129	-30.5610172223751
			32.3612656449938	-30.5610172223751
			32.3756676323747	-30.5610172223751
			32.3900696197557	-30.5610172223751
			32.4044716071366	-30.5610172223751
			32.4188735945176	-30.5610172223751
			32.4332755818985	-30.5610172223751
			32.4476775692795	-30.5466152349941
			32.4620795566604	-30.5466152349941
			32.4764815440414	-30.5466152349941
			32.4908835314223	-30.5322132476132
			32.5052855188033	-30.5322132476132
			32.5196875061842	-30.5322132476132
			32.5340894935652	-30.5322132476132
			32.5484914809461	-30.5322132476132
			32.5628934683271	-30.5322132476132
			32.577295455708	-30.5178112602322
			32.591697443089	-30.5178112602322
			32.6060994304699	-30.5178112602322
			32.6205014178509	-30.5178112602322
			32.6349034052318	-30.5178112602322
			32.6493053926128	-30.5178112602322
			32.6637073799937	-30.5178112602322
			32.6781093673747	-30.5178112602322
			32.6925113547556	-30.5178112602322
			32.7069133421366	-30.5178112602322
			32.7213153295175	-30.5178112602322
			32.7357173168985	-30.5178112602322
			32.7501193042794	-30.5178112602322
			32.7645212916604	-30.5322132476132
			32.7789232790413	-30.5322132476132
			32.7933252664223	-30.5322132476132
			32.8077272538032	-30.5322132476132
			32.8221292411842	-30.5322132476132
			32.8365312285651	-30.5322132476132
			32.8509332159461	-30.5322132476132
			32.865335203327	-30.5322132476132
			32.879737190708	-30.5322132476132
			32.8941391780889	-30.5322132476132
			32.9085411654699	-30.5322132476132
			32.9229431528508	-30.5322132476132
			32.9373451402318	-30.5322132476132
			32.9517471276127	-30.5322132476132
			32.9661491149937	-30.5322132476132
			32.9805511023746	-30.5322132476132
			32.9949530897556	-30.5322132476132
			33.0093550771365	-30.5322132476132
			33.0237570645175	-30.5322132476132
			33.0381590518984	-30.5322132476132
			33.0525610392794	-30.5466152349941
			33.0669630266603	-30.5466152349941
			33.0813650140413	-30.5466152349941
			33.0957670014222	-30.5466152349941
			33.1101689888032	-30.5466152349941
			33.1245709761841	-30.5610172223751
			33.1389729635651	-30.5610172223751
			33.153374950946	-30.5610172223751
			33.167776938327	-30.575419209756
			33.1821789257079	-30.575419209756
			33.1965809130889	-30.575419209756
			33.2109829004698	-30.589821197137
			33.2253848878508	-30.589821197137
			33.2397868752317	-30.6042231845179
			33.2541888626127	-30.6042231845179
			33.2685908499936	-30.6186251718989
			33.2829928373746	-30.6186251718989
			33.2829928373746	-30.6330271592798
			33.2973948247555	-30.6330271592798
			33.3117968121365	-30.6474291466608
			33.3261987995174	-30.6474291466608
			33.3261987995174	-30.6618311340417
			33.3406007868984	-30.6618311340417
			33.3550027742793	-30.6762331214227
			33.3550027742793	-30.6906351088036
			33.3694047616603	-30.6906351088036
			33.3838067490412	-30.7050370961846
			33.3982087364222	-30.7194390835655
			33.4126107238031	-30.7338410709465
			33.4270127111841	-30.7482430583274
			33.4270127111841	-30.7626450457084
			33.441414698565	-30.7770470330893
			33.441414698565	-30.7914490204703
			33.455816685946	-30.8058510078512
			33.4702186733269	-30.8202529952322
			33.4702186733269	-30.8346549826131
			33.4846206607079	-30.8490569699941
			33.4990226480888	-30.863458957375
			33.5134246354698	-30.877860944756
			33.5134246354698	-30.8922629321369
			33.5278266228507	-30.9066649195179
			33.5278266228507	-30.9210669068988
			33.5422286102317	-30.9354688942798
			33.5422286102317	-30.9498708816607
			33.5566305976126	-30.9642728690417
			33.5710325849936	-30.9786748564226
			33.5710325849936	-30.9930768438036
			33.5710325849936	-31.0074788311845
			33.5854345723745	-31.0074788311845
			33.5854345723745	-31.0218808185655
			33.5854345723745	-31.0362828059464
			33.5998365597555	-31.0506847933274
			33.5998365597555	-31.0650867807083
			33.6142385471364	-31.0794887680893
			33.6142385471364	-31.0938907554702
			33.6142385471364	-31.1082927428512
			33.6286405345174	-31.1226947302321
			33.6286405345174	-31.1370967176131
			33.6286405345174	-31.151498704994
			33.6430425218983	-31.165900692375
			33.6430425218983	-31.1803026797559
			33.6430425218983	-31.1947046671369
			33.6430425218983	-31.2091066545178
			33.6430425218983	-31.2235086418988
			33.6574445092793	-31.2235086418988
			33.6574445092793	-31.2379106292797
			33.6574445092793	-31.2523126166607
			33.6574445092793	-31.2667146040416
			33.6718464966602	-31.2811165914226
			33.6718464966602	-31.2955185788035
			33.6718464966602	-31.3099205661845
		</Outline3>
		<Outline4 type=matrix rownames=FALSE colnames=FALSE nrow=123 ncol=2 as.numeric=TRUE >
			33.6718464966602	-31.3099205661845
			33.6718464966602	-31.3243225535654
			33.6718464966602	-31.3387245409464
			33.6862484840412	-31.3531265283273
			33.6862484840412	-31.3675285157083
			33.6862484840412	-31.3819305030892
			33.6862484840412	-31.3963324904702
			33.6862484840412	-31.4107344778511
			33.6862484840412	-31.4251364652321
			33.7006504714221	-31.439538452613
			33.7006504714221	-31.453940439994
			33.7006504714221	-31.4683424273749
			33.7006504714221	-31.4827444147559
			33.7006504714221	-31.4971464021368
			33.7006504714221	-31.5115483895178
			33.7150524588031	-31.5259503768987
			33.7150524588031	-31.5403523642797
			33.7150524588031	-31.5547543516606
			33.7150524588031	-31.5691563390416
			33.7150524588031	-31.5835583264225
			33.7150524588031	-31.5979603138035
			33.7150524588031	-31.6123623011844
			33.7150524588031	-31.6267642885654
			33.7150524588031	-31.6411662759463
			33.7150524588031	-31.6555682633273
			33.7150524588031	-31.6699702507082
			33.7150524588031	-31.6843722380892
			33.7150524588031	-31.6987742254701
			33.7150524588031	-31.7131762128511
			33.7150524588031	-31.727578200232
			33.7150524588031	-31.741980187613
			33.7006504714221	-31.7563821749939
			33.7006504714221	-31.7707841623749
			33.7006504714221	-31.7851861497558
			33.7006504714221	-31.7995881371368
			33.7006504714221	-31.8139901245177
			33.7006504714221	-31.8283921118987
			33.7006504714221	-31.8427940992796
			33.6862484840412	-31.8571960866606
			33.6862484840412	-31.8715980740415
			33.6862484840412	-31.8860000614225
			33.6718464966602	-31.9004020488034
			33.6718464966602	-31.9148040361844
			33.6718464966602	-31.9292060235653
			33.6574445092793	-31.9436080109463
			33.6574445092793	-31.9580099983272
			33.6574445092793	-31.9724119857082
			33.6430425218983	-31.9868139730891
			33.6430425218983	-32.0012159604701
			33.6430425218983	-32.015617947851
			33.6286405345174	-32.030019935232
			33.6286405345174	-32.0444219226129
			33.6286405345174	-32.0588239099939
			33.6142385471364	-32.0732258973748
			33.6142385471364	-32.0876278847558
			33.5998365597555	-32.1020298721367
			33.5998365597555	-32.1164318595177
			33.5854345723745	-32.1308338468986
			33.5710325849936	-32.1452358342796
			33.5566305976126	-32.1596378216605
			33.5566305976126	-32.1740398090415
			33.5422286102317	-32.1884417964224
			33.5278266228507	-32.2028437838034
			33.5278266228507	-32.2172457711843
			33.5134246354698	-32.2316477585653
			33.4990226480888	-32.2460497459462
			33.4990226480888	-32.2604517333272
			33.4846206607079	-32.2748537207081
			33.4702186733269	-32.2892557080891
			33.455816685946	-32.30365769547
			33.441414698565	-32.318059682851
			33.4270127111841	-32.3324616702319
			33.4126107238031	-32.3468636576129
			33.3982087364222	-32.3612656449938
			33.3838067490412	-32.3756676323747
			33.3694047616603	-32.3900696197557
			33.3550027742793	-32.4044716071366
			33.3406007868984	-32.4188735945176
			33.3261987995174	-32.4332755818985
			33.3117968121365	-32.4476775692795
			33.2973948247555	-32.4620795566604
			33.2829928373746	-32.4620795566604
			33.2685908499936	-32.4620795566604
			33.2541888626127	-32.4620795566604
			33.2541888626127	-32.4764815440414
			33.2397868752317	-32.4764815440414
			33.2253848878508	-32.4764815440414
			33.2253848878508	-32.4908835314223
			33.2109829004698	-32.4908835314223
			33.1965809130889	-32.4908835314223
			33.1821789257079	-32.4908835314223
			33.167776938327	-32.5052855188033
			33.153374950946	-32.5052855188033
			33.1389729635651	-32.5052855188033
			33.1245709761841	-32.5196875061842
			33.1101689888032	-32.5196875061842
			33.0957670014222	-32.5196875061842
			33.0813650140413	-32.5196875061842
			33.0669630266603	-32.5340894935652
			33.0525610392794	-32.5340894935652
			33.0381590518984	-32.5340894935652
			33.0237570645175	-32.5484914809461
			33.0093550771365	-32.5484914809461
			32.9949530897556	-32.5628934683271
			32.9805511023746	-32.5628934683271
			32.9661491149937	-32.577295455708
			32.9517471276127	-32.577295455708
			32.9373451402318	-32.591697443089
			32.9373451402318	-32.6060994304699
			32.9229431528508	-32.6060994304699
			32.9085411654699	-32.6205014178509
			32.9085411654699	-32.6349034052318
			32.8941391780889	-32.6349034052318
			32.8941391780889	-32.6493053926128
			32.879737190708	-32.6637073799937
			32.879737190708	-32.6781093673747
			32.865335203327	-32.6781093673747
			32.865335203327	-32.6925113547556
			32.865335203327	-32.7069133421366
			32.8509332159461	-32.7069133421366
			32.8509332159461	-32.7213153295175
			32.8365312285651	-32.7357173168985
			32.8365312285651	-32.7501193042794
		</Outline4>
	</curves.scaled>
	<ruler.points type=matrix rownames=TRUE colnames=FALSE nrow=2 ncol=2 as.numeric=TRUE >
		Ruler point 1	2771	502
		Ruler point 2	2077	480
	</ruler.points>
</shapes>

