<shapes type=list>
	<ruler.pixel type=vector names=FALSE length=1 as.numeric=TRUE >688.122808806684</ruler.pixel>
	<ruler.interval type=vector names=FALSE length=1 as.numeric=TRUE >10</ruler.interval>
	<scaling.units type=vector names=FALSE length=1 as.numeric=FALSE >mm</scaling.units>
	<scaling type=vector names=FALSE length=1 as.numeric=TRUE >0.0145322896901813</scaling>
	<landmarks.pixel type=matrix rownames=TRUE colnames=FALSE nrow=4 ncol=2 as.numeric=TRUE >
		Labial	2419	1604
		Posterior	2314	1544
		Lingual	2375	1439
		Anterior	2483	1502
	</landmarks.pixel>
	<landmarks.scaled type=matrix rownames=TRUE colnames=FALSE nrow=4 ncol=2 as.numeric=TRUE >
		Labial	35.1536087605487	-23.3097926630509
		Posterior	33.6277183430796	-22.43785528164
		Lingual	34.5141880141807	-20.911964864171
		Anterior	36.0836753007203	-21.8274991146524
	</landmarks.scaled>
	<curves.control type=list>
		<Outline1 type=matrix rownames=FALSE colnames=FALSE nrow=17 ncol=2 as.numeric=TRUE >
			2419	1604
			2413	1609
			2406	1615
			2400	1620
			2392	1626
			2383	1631
			2373	1633
			2362	1635
			2352	1635
			2342	1632
			2335	1628
			2327	1621
			2323	1612
			2319	1604
			2316	1596
			2313	1586
			2314	1544
		</Outline1>
		<Outline2 type=matrix rownames=FALSE colnames=FALSE nrow=17 ncol=2 as.numeric=TRUE >
			2314	1544
			2312	1532
			2309	1519
			2309	1508
			2309	1498
			2311	1488
			2314	1478
			2319	1466
			2326	1456
			2333	1448
			2342	1441
			2348	1437
			2354	1436
			2360	1436
			2364	1438
			2369	1439
			2375	1439
		</Outline2>
		<Outline3 type=matrix rownames=FALSE colnames=FALSE nrow=21 ncol=2 as.numeric=TRUE >
			2375	1439
			2381	1439
			2389	1439
			2395	1437
			2403	1437
			2410	1437
			2417	1438
			2425	1441
			2433	1441
			2439	1441
			2447	1441
			2454	1442
			2463	1447
			2468	1452
			2473	1461
			2477	1470
			2480	1476
			2481	1483
			2482	1489
			2482	1495
			2483	1502
		</Outline3>
		<Outline4 type=matrix rownames=FALSE colnames=FALSE nrow=17 ncol=2 as.numeric=TRUE >
			2483	1502
			2484	1513
			2485	1522
			2485	1530
			2484	1539
			2481	1548
			2476	1558
			2471	1565
			2465	1571
			2459	1576
			2454	1580
			2447	1584
			2438	1588
			2432	1591
			2427	1595
			2423	1599
			2419	1604
		</Outline4>
	</curves.control>
	<curves.pixel type=list>
		<Outline1 type=matrix rownames=FALSE colnames=FALSE nrow=184 ncol=2 as.numeric=TRUE >
			2419	1604
			2418	1604
			2418	1605
			2417	1605
			2417	1606
			2416	1606
			2416	1607
			2415	1607
			2415	1608
			2414	1608
			2414	1609
			2413	1609
			2412	1609
			2412	1610
			2411	1610
			2411	1611
			2410	1611
			2410	1612
			2409	1612
			2408	1613
			2407	1614
			2406	1615
			2405	1616
			2404	1617
			2403	1618
			2402	1619
			2401	1619
			2400	1620
			2399	1620
			2399	1621
			2398	1621
			2397	1622
			2396	1623
			2395	1624
			2394	1625
			2393	1625
			2392	1626
			2391	1627
			2390	1627
			2389	1628
			2388	1628
			2387	1628
			2387	1629
			2386	1629
			2385	1629
			2384	1630
			2383	1630
			2382	1631
			2381	1631
			2380	1631
			2379	1632
			2378	1632
			2377	1632
			2376	1632
			2375	1632
			2375	1633
			2374	1633
			2373	1633
			2372	1633
			2371	1633
			2370	1634
			2369	1634
			2368	1634
			2367	1634
			2366	1634
			2365	1634
			2364	1634
			2363	1634
			2362	1635
			2361	1635
			2360	1635
			2359	1635
			2358	1635
			2357	1635
			2356	1635
			2355	1635
			2354	1635
			2353	1635
			2352	1635
			2351	1635
			2350	1634
			2349	1634
			2348	1634
			2347	1633
			2346	1633
			2345	1633
			2344	1632
			2343	1632
			2342	1632
			2342	1631
			2341	1631
			2340	1631
			2339	1630
			2338	1630
			2337	1629
			2336	1629
			2335	1628
			2334	1627
			2333	1626
			2332	1625
			2331	1624
			2330	1623
			2329	1622
			2328	1621
			2327	1620
			2327	1619
			2326	1618
			2326	1617
			2325	1616
			2324	1615
			2324	1614
			2323	1613
			2323	1612
			2323	1611
			2322	1611
			2322	1610
			2322	1609
			2321	1608
			2320	1607
			2320	1606
			2320	1605
			2319	1604
			2319	1603
			2318	1602
			2318	1601
			2318	1600
			2317	1599
			2317	1598
			2317	1597
			2316	1597
			2316	1596
			2316	1595
			2316	1594
			2315	1594
			2315	1593
			2315	1592
			2315	1591
			2315	1590
			2315	1589
			2315	1588
			2315	1587
			2314	1586
			2314	1585
			2314	1584
			2314	1583
			2314	1582
			2314	1581
			2314	1580
			2314	1579
			2314	1578
			2314	1577
			2314	1576
			2314	1575
			2314	1574
			2314	1573
			2314	1572
			2314	1571
			2314	1570
			2314	1569
			2314	1568
			2314	1567
			2314	1566
			2314	1565
			2314	1564
			2314	1563
			2314	1562
			2314	1561
			2314	1560
			2314	1559
			2314	1558
			2314	1557
			2314	1556
			2314	1555
			2314	1554
			2314	1553
			2314	1552
			2314	1551
			2314	1550
			2314	1549
			2314	1548
			2314	1547
			2314	1546
			2314	1545
			2314	1544
		</Outline1>
		<Outline2 type=matrix rownames=FALSE colnames=FALSE nrow=143 ncol=2 as.numeric=TRUE >
			2314	1544
			2314	1543
			2314	1542
			2314	1541
			2313	1540
			2313	1539
			2313	1538
			2313	1537
			2313	1536
			2312	1535
			2312	1534
			2312	1533
			2312	1532
			2312	1531
			2311	1530
			2311	1529
			2311	1528
			2311	1527
			2311	1526
			2310	1525
			2310	1524
			2310	1523
			2310	1522
			2310	1521
			2309	1520
			2309	1519
			2309	1518
			2309	1517
			2309	1516
			2309	1515
			2309	1514
			2309	1513
			2309	1512
			2309	1511
			2309	1510
			2309	1509
			2309	1508
			2309	1507
			2309	1506
			2309	1505
			2309	1504
			2309	1503
			2309	1502
			2309	1501
			2309	1500
			2309	1499
			2309	1498
			2309	1497
			2309	1496
			2310	1495
			2310	1494
			2310	1493
			2310	1492
			2311	1491
			2311	1490
			2311	1489
			2311	1488
			2312	1487
			2312	1486
			2312	1485
			2312	1484
			2313	1483
			2313	1482
			2313	1481
			2313	1480
			2314	1479
			2314	1478
			2314	1477
			2315	1476
			2316	1475
			2316	1474
			2316	1473
			2317	1472
			2317	1471
			2318	1470
			2318	1469
			2319	1468
			2319	1467
			2320	1466
			2320	1465
			2321	1464
			2321	1463
			2322	1462
			2322	1461
			2323	1461
			2324	1460
			2324	1459
			2325	1458
			2325	1457
			2326	1456
			2327	1455
			2328	1454
			2329	1453
			2330	1452
			2330	1451
			2331	1450
			2332	1450
			2333	1449
			2334	1448
			2334	1447
			2335	1447
			2336	1446
			2337	1445
			2338	1445
			2339	1444
			2339	1443
			2340	1442
			2341	1442
			2342	1441
			2343	1441
			2343	1440
			2344	1440
			2345	1439
			2346	1439
			2347	1438
			2348	1438
			2349	1437
			2350	1437
			2351	1437
			2352	1436
			2353	1436
			2354	1436
			2355	1436
			2356	1436
			2357	1436
			2358	1436
			2359	1436
			2360	1437
			2361	1437
			2362	1437
			2363	1438
			2364	1438
			2365	1438
			2366	1438
			2367	1439
			2368	1439
			2369	1439
			2370	1439
			2371	1439
			2372	1439
			2373	1439
			2374	1439
			2375	1439
		</Outline2>
		<Outline3 type=matrix rownames=FALSE colnames=FALSE nrow=145 ncol=2 as.numeric=TRUE >
			2375	1439
			2376	1439
			2377	1439
			2378	1439
			2379	1439
			2380	1439
			2381	1439
			2382	1439
			2383	1439
			2384	1439
			2385	1439
			2386	1439
			2387	1439
			2388	1439
			2389	1439
			2390	1439
			2391	1438
			2392	1438
			2393	1438
			2394	1438
			2395	1438
			2396	1437
			2397	1437
			2398	1437
			2399	1437
			2400	1437
			2401	1437
			2402	1437
			2403	1437
			2404	1437
			2405	1437
			2406	1437
			2407	1437
			2408	1437
			2409	1437
			2410	1437
			2411	1437
			2412	1437
			2413	1437
			2414	1438
			2415	1438
			2416	1438
			2417	1438
			2418	1438
			2419	1439
			2420	1439
			2421	1439
			2422	1440
			2423	1440
			2424	1440
			2425	1440
			2426	1440
			2427	1441
			2428	1441
			2429	1441
			2430	1441
			2431	1441
			2432	1441
			2433	1441
			2434	1441
			2435	1441
			2436	1441
			2437	1441
			2438	1441
			2439	1441
			2440	1441
			2441	1441
			2442	1441
			2443	1441
			2444	1441
			2445	1441
			2446	1441
			2447	1441
			2448	1441
			2449	1441
			2450	1442
			2451	1442
			2452	1442
			2453	1443
			2454	1443
			2455	1443
			2456	1444
			2457	1444
			2458	1445
			2459	1445
			2460	1446
			2461	1446
			2462	1447
			2463	1447
			2464	1448
			2465	1449
			2466	1450
			2467	1451
			2467	1452
			2468	1453
			2469	1454
			2470	1455
			2470	1456
			2471	1457
			2471	1458
			2472	1459
			2473	1460
			2473	1461
			2473	1462
			2474	1463
			2474	1464
			2475	1465
			2475	1466
			2476	1467
			2476	1468
			2477	1469
			2477	1470
			2478	1471
			2478	1472
			2478	1473
			2479	1474
			2479	1475
			2480	1475
			2480	1476
			2480	1477
			2480	1478
			2480	1479
			2481	1480
			2481	1481
			2481	1482
			2481	1483
			2481	1484
			2481	1485
			2482	1486
			2482	1487
			2482	1488
			2482	1489
			2482	1490
			2482	1491
			2482	1492
			2482	1493
			2482	1494
			2482	1495
			2482	1496
			2482	1497
			2482	1498
			2483	1499
			2483	1500
			2483	1501
			2483	1502
		</Outline3>
		<Outline4 type=matrix rownames=FALSE colnames=FALSE nrow=124 ncol=2 as.numeric=TRUE >
			2483	1502
			2483	1503
			2483	1504
			2483	1505
			2483	1506
			2483	1507
			2484	1508
			2484	1509
			2484	1510
			2484	1511
			2484	1512
			2484	1513
			2484	1514
			2484	1515
			2484	1516
			2484	1517
			2485	1518
			2485	1519
			2485	1520
			2485	1521
			2485	1522
			2485	1523
			2485	1524
			2485	1525
			2485	1526
			2485	1527
			2485	1528
			2485	1529
			2485	1530
			2485	1531
			2485	1532
			2485	1533
			2484	1534
			2484	1535
			2484	1536
			2484	1537
			2484	1538
			2484	1539
			2484	1540
			2483	1541
			2483	1542
			2483	1543
			2482	1544
			2482	1545
			2481	1546
			2481	1547
			2481	1548
			2480	1549
			2480	1550
			2479	1551
			2479	1552
			2478	1553
			2478	1554
			2478	1555
			2477	1555
			2477	1556
			2477	1557
			2476	1557
			2476	1558
			2475	1559
			2475	1560
			2474	1561
			2473	1562
			2472	1563
			2471	1564
			2470	1565
			2469	1566
			2468	1567
			2468	1568
			2467	1569
			2466	1570
			2465	1571
			2464	1572
			2463	1573
			2462	1573
			2461	1574
			2460	1575
			2459	1576
			2458	1577
			2457	1578
			2456	1579
			2455	1579
			2454	1580
			2453	1581
			2452	1581
			2451	1581
			2451	1582
			2450	1582
			2449	1583
			2448	1583
			2447	1584
			2446	1584
			2445	1585
			2444	1585
			2443	1586
			2442	1586
			2441	1586
			2441	1587
			2440	1587
			2439	1588
			2438	1588
			2437	1589
			2436	1589
			2435	1590
			2434	1590
			2433	1591
			2432	1591
			2432	1592
			2431	1592
			2430	1593
			2429	1593
			2429	1594
			2428	1594
			2427	1595
			2426	1596
			2425	1597
			2424	1598
			2423	1599
			2422	1600
			2422	1601
			2421	1602
			2420	1602
			2420	1603
			2419	1604
		</Outline4>
	</curves.pixel>
	<curves.scaled type=list>
		<Outline1 type=matrix rownames=FALSE colnames=FALSE nrow=184 ncol=2 as.numeric=TRUE >
			35.1536087605487	-23.3097926630509
			35.1390764708585	-23.3097926630509
			35.1390764708585	-23.3243249527411
			35.1245441811683	-23.3243249527411
			35.1245441811683	-23.3388572424312
			35.1100118914781	-23.3388572424312
			35.1100118914781	-23.3533895321214
			35.0954796017879	-23.3533895321214
			35.0954796017879	-23.3679218218116
			35.0809473120978	-23.3679218218116
			35.0809473120978	-23.3824541115018
			35.0664150224076	-23.3824541115018
			35.0518827327174	-23.3824541115018
			35.0518827327174	-23.396986401192
			35.0373504430272	-23.396986401192
			35.0373504430272	-23.4115186908821
			35.022818153337	-23.4115186908821
			35.022818153337	-23.4260509805723
			35.0082858636469	-23.4260509805723
			34.9937535739567	-23.4405832702625
			34.9792212842665	-23.4551155599527
			34.9646889945763	-23.4696478496429
			34.9501567048861	-23.484180139333
			34.9356244151959	-23.4987124290232
			34.9210921255058	-23.5132447187134
			34.9065598358156	-23.5277770084036
			34.8920275461254	-23.5277770084036
			34.8774952564352	-23.5423092980938
			34.862962966745	-23.5423092980938
			34.862962966745	-23.556841587784
			34.8484306770549	-23.556841587784
			34.8338983873647	-23.5713738774741
			34.8193660976745	-23.5859061671643
			34.8048338079843	-23.6004384568545
			34.7903015182941	-23.6149707465447
			34.775769228604	-23.6149707465447
			34.7612369389138	-23.6295030362349
			34.7467046492236	-23.644035325925
			34.7321723595334	-23.644035325925
			34.7176400698432	-23.6585676156152
			34.703107780153	-23.6585676156152
			34.6885754904629	-23.6585676156152
			34.6885754904629	-23.6730999053054
			34.6740432007727	-23.6730999053054
			34.6595109110825	-23.6730999053054
			34.6449786213923	-23.6876321949956
			34.6304463317021	-23.6876321949956
			34.615914042012	-23.7021644846858
			34.6013817523218	-23.7021644846858
			34.5868494626316	-23.7021644846858
			34.5723171729414	-23.716696774376
			34.5577848832512	-23.716696774376
			34.543252593561	-23.716696774376
			34.5287203038709	-23.716696774376
			34.5141880141807	-23.716696774376
			34.5141880141807	-23.7312290640661
			34.4996557244905	-23.7312290640661
			34.4851234348003	-23.7312290640661
			34.4705911451101	-23.7312290640661
			34.45605885542	-23.7312290640661
			34.4415265657298	-23.7457613537563
			34.4269942760396	-23.7457613537563
			34.4124619863494	-23.7457613537563
			34.3979296966592	-23.7457613537563
			34.3833974069691	-23.7457613537563
			34.3688651172789	-23.7457613537563
			34.3543328275887	-23.7457613537563
			34.3398005378985	-23.7457613537563
			34.3252682482083	-23.7602936434465
			34.3107359585182	-23.7602936434465
			34.296203668828	-23.7602936434465
			34.2816713791378	-23.7602936434465
			34.2671390894476	-23.7602936434465
			34.2526067997574	-23.7602936434465
			34.2380745100672	-23.7602936434465
			34.2235422203771	-23.7602936434465
			34.2090099306869	-23.7602936434465
			34.1944776409967	-23.7602936434465
			34.1799453513065	-23.7602936434465
			34.1654130616163	-23.7602936434465
			34.1508807719262	-23.7457613537563
			34.136348482236	-23.7457613537563
			34.1218161925458	-23.7457613537563
			34.1072839028556	-23.7312290640661
			34.0927516131654	-23.7312290640661
			34.0782193234753	-23.7312290640661
			34.0636870337851	-23.716696774376
			34.0491547440949	-23.716696774376
			34.0346224544047	-23.716696774376
			34.0346224544047	-23.7021644846858
			34.0200901647145	-23.7021644846858
			34.0055578750243	-23.7021644846858
			33.9910255853342	-23.6876321949956
			33.976493295644	-23.6876321949956
			33.9619610059538	-23.6730999053054
			33.9474287162636	-23.6730999053054
			33.9328964265734	-23.6585676156152
			33.9183641368833	-23.644035325925
			33.9038318471931	-23.6295030362349
			33.8892995575029	-23.6149707465447
			33.8747672678127	-23.6004384568545
			33.8602349781225	-23.5859061671643
			33.8457026884323	-23.5713738774741
			33.8311703987422	-23.556841587784
			33.816638109052	-23.5423092980938
			33.816638109052	-23.5277770084036
			33.8021058193618	-23.5132447187134
			33.8021058193618	-23.4987124290232
			33.7875735296716	-23.484180139333
			33.7730412399814	-23.4696478496429
			33.7730412399814	-23.4551155599527
			33.7585089502913	-23.4405832702625
			33.7585089502913	-23.4260509805723
			33.7585089502913	-23.4115186908821
			33.7439766606011	-23.4115186908821
			33.7439766606011	-23.396986401192
			33.7439766606011	-23.3824541115018
			33.7294443709109	-23.3679218218116
			33.7149120812207	-23.3533895321214
			33.7149120812207	-23.3388572424312
			33.7149120812207	-23.3243249527411
			33.7003797915305	-23.3097926630509
			33.7003797915305	-23.2952603733607
			33.6858475018403	-23.2807280836705
			33.6858475018403	-23.2661957939803
			33.6858475018403	-23.2516635042901
			33.6713152121502	-23.2371312146
			33.6713152121502	-23.2225989249098
			33.6713152121502	-23.2080666352196
			33.65678292246	-23.2080666352196
			33.65678292246	-23.1935343455294
			33.65678292246	-23.1790020558392
			33.65678292246	-23.1644697661491
			33.6422506327698	-23.1644697661491
			33.6422506327698	-23.1499374764589
			33.6422506327698	-23.1354051867687
			33.6422506327698	-23.1208728970785
			33.6422506327698	-23.1063406073883
			33.6422506327698	-23.0918083176982
			33.6422506327698	-23.077276028008
			33.6422506327698	-23.0627437383178
			33.6277183430796	-23.0482114486276
			33.6277183430796	-23.0336791589374
			33.6277183430796	-23.0191468692472
			33.6277183430796	-23.0046145795571
			33.6277183430796	-22.9900822898669
			33.6277183430796	-22.9755500001767
			33.6277183430796	-22.9610177104865
			33.6277183430796	-22.9464854207963
			33.6277183430796	-22.9319531311062
			33.6277183430796	-22.917420841416
			33.6277183430796	-22.9028885517258
			33.6277183430796	-22.8883562620356
			33.6277183430796	-22.8738239723454
			33.6277183430796	-22.8592916826553
			33.6277183430796	-22.8447593929651
			33.6277183430796	-22.8302271032749
			33.6277183430796	-22.8156948135847
			33.6277183430796	-22.8011625238945
			33.6277183430796	-22.7866302342043
			33.6277183430796	-22.7720979445142
			33.6277183430796	-22.757565654824
			33.6277183430796	-22.7430333651338
			33.6277183430796	-22.7285010754436
			33.6277183430796	-22.7139687857534
			33.6277183430796	-22.6994364960633
			33.6277183430796	-22.6849042063731
			33.6277183430796	-22.6703719166829
			33.6277183430796	-22.6558396269927
			33.6277183430796	-22.6413073373025
			33.6277183430796	-22.6267750476124
			33.6277183430796	-22.6122427579222
			33.6277183430796	-22.597710468232
			33.6277183430796	-22.5831781785418
			33.6277183430796	-22.5686458888516
			33.6277183430796	-22.5541135991614
			33.6277183430796	-22.5395813094713
			33.6277183430796	-22.5250490197811
			33.6277183430796	-22.5105167300909
			33.6277183430796	-22.4959844404007
			33.6277183430796	-22.4814521507105
			33.6277183430796	-22.4669198610204
			33.6277183430796	-22.4523875713302
			33.6277183430796	-22.43785528164
		</Outline1>
		<Outline2 type=matrix rownames=FALSE colnames=FALSE nrow=143 ncol=2 as.numeric=TRUE >
			33.6277183430796	-22.43785528164
			33.6277183430796	-22.4233229919498
			33.6277183430796	-22.4087907022596
			33.6277183430796	-22.3942584125694
			33.6131860533894	-22.3797261228793
			33.6131860533894	-22.3651938331891
			33.6131860533894	-22.3506615434989
			33.6131860533894	-22.3361292538087
			33.6131860533894	-22.3215969641185
			33.5986537636993	-22.3070646744284
			33.5986537636993	-22.2925323847382
			33.5986537636993	-22.278000095048
			33.5986537636993	-22.2634678053578
			33.5986537636993	-22.2489355156676
			33.5841214740091	-22.2344032259775
			33.5841214740091	-22.2198709362873
			33.5841214740091	-22.2053386465971
			33.5841214740091	-22.1908063569069
			33.5841214740091	-22.1762740672167
			33.5695891843189	-22.1617417775265
			33.5695891843189	-22.1472094878364
			33.5695891843189	-22.1326771981462
			33.5695891843189	-22.118144908456
			33.5695891843189	-22.1036126187658
			33.5550568946287	-22.0890803290756
			33.5550568946287	-22.0745480393855
			33.5550568946287	-22.0600157496953
			33.5550568946287	-22.0454834600051
			33.5550568946287	-22.0309511703149
			33.5550568946287	-22.0164188806247
			33.5550568946287	-22.0018865909346
			33.5550568946287	-21.9873543012444
			33.5550568946287	-21.9728220115542
			33.5550568946287	-21.958289721864
			33.5550568946287	-21.9437574321738
			33.5550568946287	-21.9292251424836
			33.5550568946287	-21.9146928527935
			33.5550568946287	-21.9001605631033
			33.5550568946287	-21.8856282734131
			33.5550568946287	-21.8710959837229
			33.5550568946287	-21.8565636940327
			33.5550568946287	-21.8420314043426
			33.5550568946287	-21.8274991146524
			33.5550568946287	-21.8129668249622
			33.5550568946287	-21.798434535272
			33.5550568946287	-21.7839022455818
			33.5550568946287	-21.7693699558917
			33.5550568946287	-21.7548376662015
			33.5550568946287	-21.7403053765113
			33.5695891843189	-21.7257730868211
			33.5695891843189	-21.7112407971309
			33.5695891843189	-21.6967085074407
			33.5695891843189	-21.6821762177506
			33.5841214740091	-21.6676439280604
			33.5841214740091	-21.6531116383702
			33.5841214740091	-21.63857934868
			33.5841214740091	-21.6240470589898
			33.5986537636993	-21.6095147692997
			33.5986537636993	-21.5949824796095
			33.5986537636993	-21.5804501899193
			33.5986537636993	-21.5659179002291
			33.6131860533894	-21.5513856105389
			33.6131860533894	-21.5368533208487
			33.6131860533894	-21.5223210311586
			33.6131860533894	-21.5077887414684
			33.6277183430796	-21.4932564517782
			33.6277183430796	-21.478724162088
			33.6277183430796	-21.4641918723978
			33.6422506327698	-21.4496595827077
			33.65678292246	-21.4351272930175
			33.65678292246	-21.4205950033273
			33.65678292246	-21.4060627136371
			33.6713152121502	-21.3915304239469
			33.6713152121502	-21.3769981342568
			33.6858475018403	-21.3624658445666
			33.6858475018403	-21.3479335548764
			33.7003797915305	-21.3334012651862
			33.7003797915305	-21.318868975496
			33.7149120812207	-21.3043366858059
			33.7149120812207	-21.2898043961157
			33.7294443709109	-21.2752721064255
			33.7294443709109	-21.2607398167353
			33.7439766606011	-21.2462075270451
			33.7439766606011	-21.2316752373549
			33.7585089502913	-21.2316752373549
			33.7730412399814	-21.2171429476648
			33.7730412399814	-21.2026106579746
			33.7875735296716	-21.1880783682844
			33.7875735296716	-21.1735460785942
			33.8021058193618	-21.159013788904
			33.816638109052	-21.1444814992139
			33.8311703987422	-21.1299492095237
			33.8457026884323	-21.1154169198335
			33.8602349781225	-21.1008846301433
			33.8602349781225	-21.0863523404531
			33.8747672678127	-21.0718200507629
			33.8892995575029	-21.0718200507629
			33.9038318471931	-21.0572877610728
			33.9183641368833	-21.0427554713826
			33.9183641368833	-21.0282231816924
			33.9328964265734	-21.0282231816924
			33.9474287162636	-21.0136908920022
			33.9619610059538	-20.999158602312
			33.976493295644	-20.999158602312
			33.9910255853342	-20.9846263126219
			33.9910255853342	-20.9700940229317
			34.0055578750243	-20.9555617332415
			34.0200901647145	-20.9555617332415
			34.0346224544047	-20.9410294435513
			34.0491547440949	-20.9410294435513
			34.0491547440949	-20.9264971538611
			34.0636870337851	-20.9264971538611
			34.0782193234753	-20.911964864171
			34.0927516131654	-20.911964864171
			34.1072839028556	-20.8974325744808
			34.1218161925458	-20.8974325744808
			34.136348482236	-20.8829002847906
			34.1508807719262	-20.8829002847906
			34.1654130616163	-20.8829002847906
			34.1799453513065	-20.8683679951004
			34.1944776409967	-20.8683679951004
			34.2090099306869	-20.8683679951004
			34.2235422203771	-20.8683679951004
			34.2380745100672	-20.8683679951004
			34.2526067997574	-20.8683679951004
			34.2671390894476	-20.8683679951004
			34.2816713791378	-20.8683679951004
			34.296203668828	-20.8829002847906
			34.3107359585182	-20.8829002847906
			34.3252682482083	-20.8829002847906
			34.3398005378985	-20.8974325744808
			34.3543328275887	-20.8974325744808
			34.3688651172789	-20.8974325744808
			34.3833974069691	-20.8974325744808
			34.3979296966592	-20.911964864171
			34.4124619863494	-20.911964864171
			34.4269942760396	-20.911964864171
			34.4415265657298	-20.911964864171
			34.45605885542	-20.911964864171
			34.4705911451101	-20.911964864171
			34.4851234348003	-20.911964864171
			34.4996557244905	-20.911964864171
			34.5141880141807	-20.911964864171
		</Outline2>
		<Outline3 type=matrix rownames=FALSE colnames=FALSE nrow=145 ncol=2 as.numeric=TRUE >
			34.5141880141807	-20.911964864171
			34.5287203038709	-20.911964864171
			34.543252593561	-20.911964864171
			34.5577848832512	-20.911964864171
			34.5723171729414	-20.911964864171
			34.5868494626316	-20.911964864171
			34.6013817523218	-20.911964864171
			34.615914042012	-20.911964864171
			34.6304463317021	-20.911964864171
			34.6449786213923	-20.911964864171
			34.6595109110825	-20.911964864171
			34.6740432007727	-20.911964864171
			34.6885754904629	-20.911964864171
			34.703107780153	-20.911964864171
			34.7176400698432	-20.911964864171
			34.7321723595334	-20.911964864171
			34.7467046492236	-20.8974325744808
			34.7612369389138	-20.8974325744808
			34.775769228604	-20.8974325744808
			34.7903015182941	-20.8974325744808
			34.8048338079843	-20.8974325744808
			34.8193660976745	-20.8829002847906
			34.8338983873647	-20.8829002847906
			34.8484306770549	-20.8829002847906
			34.862962966745	-20.8829002847906
			34.8774952564352	-20.8829002847906
			34.8920275461254	-20.8829002847906
			34.9065598358156	-20.8829002847906
			34.9210921255058	-20.8829002847906
			34.9356244151959	-20.8829002847906
			34.9501567048861	-20.8829002847906
			34.9646889945763	-20.8829002847906
			34.9792212842665	-20.8829002847906
			34.9937535739567	-20.8829002847906
			35.0082858636469	-20.8829002847906
			35.022818153337	-20.8829002847906
			35.0373504430272	-20.8829002847906
			35.0518827327174	-20.8829002847906
			35.0664150224076	-20.8829002847906
			35.0809473120978	-20.8974325744808
			35.0954796017879	-20.8974325744808
			35.1100118914781	-20.8974325744808
			35.1245441811683	-20.8974325744808
			35.1390764708585	-20.8974325744808
			35.1536087605487	-20.911964864171
			35.1681410502389	-20.911964864171
			35.182673339929	-20.911964864171
			35.1972056296192	-20.9264971538611
			35.2117379193094	-20.9264971538611
			35.2262702089996	-20.9264971538611
			35.2408024986898	-20.9264971538611
			35.2553347883799	-20.9264971538611
			35.2698670780701	-20.9410294435513
			35.2843993677603	-20.9410294435513
			35.2989316574505	-20.9410294435513
			35.3134639471407	-20.9410294435513
			35.3279962368308	-20.9410294435513
			35.342528526521	-20.9410294435513
			35.3570608162112	-20.9410294435513
			35.3715931059014	-20.9410294435513
			35.3861253955916	-20.9410294435513
			35.4006576852818	-20.9410294435513
			35.4151899749719	-20.9410294435513
			35.4297222646621	-20.9410294435513
			35.4442545543523	-20.9410294435513
			35.4587868440425	-20.9410294435513
			35.4733191337327	-20.9410294435513
			35.4878514234228	-20.9410294435513
			35.502383713113	-20.9410294435513
			35.5169160028032	-20.9410294435513
			35.5314482924934	-20.9410294435513
			35.5459805821836	-20.9410294435513
			35.5605128718737	-20.9410294435513
			35.5750451615639	-20.9410294435513
			35.5895774512541	-20.9410294435513
			35.6041097409443	-20.9555617332415
			35.6186420306345	-20.9555617332415
			35.6331743203247	-20.9555617332415
			35.6477066100148	-20.9700940229317
			35.662238899705	-20.9700940229317
			35.6767711893952	-20.9700940229317
			35.6913034790854	-20.9846263126219
			35.7058357687756	-20.9846263126219
			35.7203680584657	-20.999158602312
			35.7349003481559	-20.999158602312
			35.7494326378461	-21.0136908920022
			35.7639649275363	-21.0136908920022
			35.7784972172265	-21.0282231816924
			35.7930295069166	-21.0282231816924
			35.8075617966068	-21.0427554713826
			35.822094086297	-21.0572877610728
			35.8366263759872	-21.0718200507629
			35.8511586656774	-21.0863523404531
			35.8511586656774	-21.1008846301433
			35.8656909553676	-21.1154169198335
			35.8802232450577	-21.1299492095237
			35.8947555347479	-21.1444814992139
			35.8947555347479	-21.159013788904
			35.9092878244381	-21.1735460785942
			35.9092878244381	-21.1880783682844
			35.9238201141283	-21.2026106579746
			35.9383524038185	-21.2171429476648
			35.9383524038185	-21.2316752373549
			35.9383524038185	-21.2462075270451
			35.9528846935086	-21.2607398167353
			35.9528846935086	-21.2752721064255
			35.9674169831988	-21.2898043961157
			35.9674169831988	-21.3043366858059
			35.981949272889	-21.318868975496
			35.981949272889	-21.3334012651862
			35.9964815625792	-21.3479335548764
			35.9964815625792	-21.3624658445666
			36.0110138522694	-21.3769981342568
			36.0110138522694	-21.3915304239469
			36.0110138522694	-21.4060627136371
			36.0255461419596	-21.4205950033273
			36.0255461419596	-21.4351272930175
			36.0400784316497	-21.4351272930175
			36.0400784316497	-21.4496595827077
			36.0400784316497	-21.4641918723978
			36.0400784316497	-21.478724162088
			36.0400784316497	-21.4932564517782
			36.0546107213399	-21.5077887414684
			36.0546107213399	-21.5223210311586
			36.0546107213399	-21.5368533208487
			36.0546107213399	-21.5513856105389
			36.0546107213399	-21.5659179002291
			36.0546107213399	-21.5804501899193
			36.0691430110301	-21.5949824796095
			36.0691430110301	-21.6095147692997
			36.0691430110301	-21.6240470589898
			36.0691430110301	-21.63857934868
			36.0691430110301	-21.6531116383702
			36.0691430110301	-21.6676439280604
			36.0691430110301	-21.6821762177506
			36.0691430110301	-21.6967085074407
			36.0691430110301	-21.7112407971309
			36.0691430110301	-21.7257730868211
			36.0691430110301	-21.7403053765113
			36.0691430110301	-21.7548376662015
			36.0691430110301	-21.7693699558917
			36.0836753007203	-21.7839022455818
			36.0836753007203	-21.798434535272
			36.0836753007203	-21.8129668249622
			36.0836753007203	-21.8274991146524
		</Outline3>
		<Outline4 type=matrix rownames=FALSE colnames=FALSE nrow=124 ncol=2 as.numeric=TRUE >
			36.0836753007203	-21.8274991146524
			36.0836753007203	-21.8420314043426
			36.0836753007203	-21.8565636940327
			36.0836753007203	-21.8710959837229
			36.0836753007203	-21.8856282734131
			36.0836753007203	-21.9001605631033
			36.0982075904105	-21.9146928527935
			36.0982075904105	-21.9292251424836
			36.0982075904105	-21.9437574321738
			36.0982075904105	-21.958289721864
			36.0982075904105	-21.9728220115542
			36.0982075904105	-21.9873543012444
			36.0982075904105	-22.0018865909346
			36.0982075904105	-22.0164188806247
			36.0982075904105	-22.0309511703149
			36.0982075904105	-22.0454834600051
			36.1127398801006	-22.0600157496953
			36.1127398801006	-22.0745480393855
			36.1127398801006	-22.0890803290756
			36.1127398801006	-22.1036126187658
			36.1127398801006	-22.118144908456
			36.1127398801006	-22.1326771981462
			36.1127398801006	-22.1472094878364
			36.1127398801006	-22.1617417775265
			36.1127398801006	-22.1762740672167
			36.1127398801006	-22.1908063569069
			36.1127398801006	-22.2053386465971
			36.1127398801006	-22.2198709362873
			36.1127398801006	-22.2344032259775
			36.1127398801006	-22.2489355156676
			36.1127398801006	-22.2634678053578
			36.1127398801006	-22.278000095048
			36.0982075904105	-22.2925323847382
			36.0982075904105	-22.3070646744284
			36.0982075904105	-22.3215969641185
			36.0982075904105	-22.3361292538087
			36.0982075904105	-22.3506615434989
			36.0982075904105	-22.3651938331891
			36.0982075904105	-22.3797261228793
			36.0836753007203	-22.3942584125694
			36.0836753007203	-22.4087907022596
			36.0836753007203	-22.4233229919498
			36.0691430110301	-22.43785528164
			36.0691430110301	-22.4523875713302
			36.0546107213399	-22.4669198610204
			36.0546107213399	-22.4814521507105
			36.0546107213399	-22.4959844404007
			36.0400784316497	-22.5105167300909
			36.0400784316497	-22.5250490197811
			36.0255461419596	-22.5395813094713
			36.0255461419596	-22.5541135991614
			36.0110138522694	-22.5686458888516
			36.0110138522694	-22.5831781785418
			36.0110138522694	-22.597710468232
			35.9964815625792	-22.597710468232
			35.9964815625792	-22.6122427579222
			35.9964815625792	-22.6267750476124
			35.981949272889	-22.6267750476124
			35.981949272889	-22.6413073373025
			35.9674169831988	-22.6558396269927
			35.9674169831988	-22.6703719166829
			35.9528846935086	-22.6849042063731
			35.9383524038185	-22.6994364960633
			35.9238201141283	-22.7139687857534
			35.9092878244381	-22.7285010754436
			35.8947555347479	-22.7430333651338
			35.8802232450577	-22.757565654824
			35.8656909553676	-22.7720979445142
			35.8656909553676	-22.7866302342043
			35.8511586656774	-22.8011625238945
			35.8366263759872	-22.8156948135847
			35.822094086297	-22.8302271032749
			35.8075617966068	-22.8447593929651
			35.7930295069166	-22.8592916826553
			35.7784972172265	-22.8592916826553
			35.7639649275363	-22.8738239723454
			35.7494326378461	-22.8883562620356
			35.7349003481559	-22.9028885517258
			35.7203680584657	-22.917420841416
			35.7058357687756	-22.9319531311062
			35.6913034790854	-22.9464854207963
			35.6767711893952	-22.9464854207963
			35.662238899705	-22.9610177104865
			35.6477066100148	-22.9755500001767
			35.6331743203247	-22.9755500001767
			35.6186420306345	-22.9755500001767
			35.6186420306345	-22.9900822898669
			35.6041097409443	-22.9900822898669
			35.5895774512541	-23.0046145795571
			35.5750451615639	-23.0046145795571
			35.5605128718737	-23.0191468692472
			35.5459805821836	-23.0191468692472
			35.5314482924934	-23.0336791589374
			35.5169160028032	-23.0336791589374
			35.502383713113	-23.0482114486276
			35.4878514234228	-23.0482114486276
			35.4733191337327	-23.0482114486276
			35.4733191337327	-23.0627437383178
			35.4587868440425	-23.0627437383178
			35.4442545543523	-23.077276028008
			35.4297222646621	-23.077276028008
			35.4151899749719	-23.0918083176982
			35.4006576852818	-23.0918083176982
			35.3861253955916	-23.1063406073883
			35.3715931059014	-23.1063406073883
			35.3570608162112	-23.1208728970785
			35.342528526521	-23.1208728970785
			35.342528526521	-23.1354051867687
			35.3279962368308	-23.1354051867687
			35.3134639471407	-23.1499374764589
			35.2989316574505	-23.1499374764589
			35.2989316574505	-23.1644697661491
			35.2843993677603	-23.1644697661491
			35.2698670780701	-23.1790020558392
			35.2553347883799	-23.1935343455294
			35.2408024986898	-23.2080666352196
			35.2262702089996	-23.2225989249098
			35.2117379193094	-23.2371312146
			35.1972056296192	-23.2516635042901
			35.1972056296192	-23.2661957939803
			35.182673339929	-23.2807280836705
			35.1681410502389	-23.2807280836705
			35.1681410502389	-23.2952603733607
			35.1536087605487	-23.3097926630509
		</Outline4>
	</curves.scaled>
	<ruler.points type=matrix rownames=TRUE colnames=FALSE nrow=2 ncol=2 as.numeric=TRUE >
		Ruler point 1	2916	2496
		Ruler point 2	2228	2509
	</ruler.points>
</shapes>

