<shapes type=list>
	<ruler.pixel type=vector names=FALSE length=1 as.numeric=TRUE >684</ruler.pixel>
	<ruler.interval type=vector names=FALSE length=1 as.numeric=TRUE >10</ruler.interval>
	<scaling.units type=vector names=FALSE length=1 as.numeric=FALSE >mm</scaling.units>
	<scaling type=vector names=FALSE length=1 as.numeric=TRUE >0.0146198830409357</scaling>
	<landmarks.pixel type=matrix rownames=TRUE colnames=FALSE nrow=4 ncol=2 as.numeric=TRUE >
		Labial	2435	1821
		Posterior	2329	1779
		Lingual	2370	1674
		Anterior	2478	1712
	</landmarks.pixel>
	<landmarks.scaled type=matrix rownames=TRUE colnames=FALSE nrow=4 ncol=2 as.numeric=TRUE >
		Labial	35.5994152046784	-26.6228070175439
		Posterior	34.0497076023392	-26.0087719298246
		Lingual	34.6491228070175	-24.4736842105263
		Anterior	36.2280701754386	-25.0292397660819
	</landmarks.scaled>
	<curves.control type=list>
		<Outline1 type=matrix rownames=FALSE colnames=FALSE nrow=23 ncol=2 as.numeric=TRUE >
			2435	1821
			2428	1828
			2422	1834
			2417	1839
			2411	1844
			2405	1849
			2399	1853
			2391	1858
			2383	1860
			2374	1861
			2367	1860
			2359	1859
			2353	1856
			2346	1852
			2341	1848
			2336	1842
			2332	1835
			2329	1827
			2329	1821
			2329	1811
			2329	1800
			2330	1790
			2329	1779
		</Outline1>
		<Outline2 type=matrix rownames=FALSE colnames=FALSE nrow=17 ncol=2 as.numeric=TRUE >
			2329	1779
			2327	1770
			2325	1760
			2324	1750
			2323	1739
			2324	1730
			2325	1721
			2326	1714
			2327	1707
			2329	1699
			2334	1693
			2338	1688
			2344	1684
			2348	1681
			2353	1678
			2359	1675
			2370	1674
		</Outline2>
		<Outline3 type=matrix rownames=FALSE colnames=FALSE nrow=19 ncol=2 as.numeric=TRUE >
			2370	1674
			2379	1673
			2386	1673
			2394	1673
			2398	1672
			2405	1670
			2411	1669
			2417	1667
			2423	1666
			2430	1666
			2436	1667
			2443	1669
			2449	1673
			2454	1678
			2459	1683
			2464	1689
			2468	1696
			2473	1703
			2478	1712
		</Outline3>
		<Outline4 type=matrix rownames=FALSE colnames=FALSE nrow=19 ncol=2 as.numeric=TRUE >
			2478	1712
			2482	1722
			2483	1730
			2484	1737
			2484	1745
			2486	1752
			2486	1763
			2485	1772
			2482	1780
			2479	1787
			2474	1794
			2469	1800
			2465	1804
			2459	1809
			2453	1812
			2446	1815
			2441	1818
			2438	1819
			2435	1821
		</Outline4>
	</curves.control>
	<curves.pixel type=list>
		<Outline1 type=matrix rownames=FALSE colnames=FALSE nrow=166 ncol=2 as.numeric=TRUE >
			2435	1821
			2434	1822
			2433	1823
			2432	1824
			2431	1825
			2430	1826
			2429	1827
			2428	1828
			2427	1829
			2426	1830
			2425	1831
			2424	1832
			2423	1833
			2422	1834
			2421	1835
			2420	1836
			2419	1837
			2418	1838
			2417	1839
			2416	1839
			2415	1840
			2414	1841
			2413	1842
			2412	1843
			2411	1844
			2410	1845
			2409	1845
			2408	1846
			2407	1847
			2406	1848
			2405	1849
			2404	1849
			2403	1850
			2402	1851
			2401	1852
			2400	1852
			2399	1853
			2398	1854
			2397	1854
			2396	1855
			2395	1855
			2394	1856
			2393	1856
			2392	1857
			2391	1857
			2390	1858
			2389	1858
			2388	1859
			2387	1859
			2386	1859
			2385	1860
			2384	1860
			2383	1860
			2382	1860
			2381	1860
			2380	1860
			2379	1860
			2378	1860
			2377	1860
			2376	1860
			2375	1860
			2374	1860
			2373	1860
			2372	1860
			2371	1860
			2370	1860
			2369	1860
			2368	1860
			2367	1860
			2366	1860
			2365	1860
			2364	1860
			2363	1859
			2362	1859
			2361	1859
			2360	1859
			2359	1858
			2358	1858
			2357	1858
			2356	1857
			2355	1857
			2354	1856
			2353	1856
			2352	1855
			2351	1855
			2350	1854
			2349	1853
			2348	1853
			2347	1852
			2346	1852
			2345	1851
			2344	1850
			2343	1850
			2342	1849
			2342	1848
			2341	1848
			2340	1847
			2339	1846
			2339	1845
			2338	1844
			2337	1843
			2336	1842
			2336	1841
			2335	1840
			2334	1839
			2334	1838
			2333	1837
			2332	1836
			2332	1835
			2332	1834
			2331	1833
			2331	1832
			2331	1831
			2330	1830
			2330	1829
			2330	1828
			2330	1827
			2330	1826
			2329	1826
			2329	1825
			2329	1824
			2329	1823
			2329	1822
			2329	1821
			2329	1820
			2329	1819
			2329	1818
			2329	1817
			2329	1816
			2329	1815
			2329	1814
			2329	1813
			2329	1812
			2329	1811
			2329	1810
			2329	1809
			2329	1808
			2329	1807
			2329	1806
			2329	1805
			2329	1804
			2329	1803
			2329	1802
			2329	1801
			2329	1800
			2329	1799
			2329	1798
			2329	1797
			2329	1796
			2329	1795
			2329	1794
			2329	1793
			2329	1792
			2329	1791
			2329	1790
			2329	1789
			2329	1788
			2329	1787
			2329	1786
			2329	1785
			2329	1784
			2329	1783
			2329	1782
			2329	1781
			2329	1780
			2329	1779
		</Outline1>
		<Outline2 type=matrix rownames=FALSE colnames=FALSE nrow=126 ncol=2 as.numeric=TRUE >
			2329	1779
			2329	1778
			2329	1777
			2328	1776
			2328	1775
			2328	1774
			2328	1773
			2328	1772
			2327	1772
			2327	1771
			2327	1770
			2327	1769
			2327	1768
			2326	1767
			2326	1766
			2326	1765
			2326	1764
			2326	1763
			2325	1762
			2325	1761
			2325	1760
			2325	1759
			2325	1758
			2325	1757
			2325	1756
			2324	1755
			2324	1754
			2324	1753
			2324	1752
			2324	1751
			2324	1750
			2324	1749
			2324	1748
			2324	1747
			2324	1746
			2324	1745
			2323	1744
			2323	1743
			2323	1742
			2323	1741
			2323	1740
			2323	1739
			2323	1738
			2323	1737
			2323	1736
			2323	1735
			2324	1734
			2324	1733
			2324	1732
			2324	1731
			2324	1730
			2324	1729
			2324	1728
			2324	1727
			2324	1726
			2325	1725
			2325	1724
			2325	1723
			2325	1722
			2325	1721
			2325	1720
			2325	1719
			2325	1718
			2326	1717
			2326	1716
			2326	1715
			2326	1714
			2326	1713
			2326	1712
			2326	1711
			2327	1710
			2327	1709
			2327	1708
			2327	1707
			2327	1706
			2328	1705
			2328	1704
			2328	1703
			2329	1702
			2329	1701
			2330	1700
			2330	1699
			2331	1698
			2331	1697
			2332	1696
			2332	1695
			2333	1694
			2334	1693
			2335	1692
			2336	1691
			2337	1690
			2338	1689
			2338	1688
			2339	1688
			2340	1687
			2341	1686
			2342	1686
			2343	1685
			2344	1684
			2345	1683
			2346	1683
			2347	1682
			2348	1681
			2349	1681
			2349	1680
			2350	1680
			2351	1679
			2352	1678
			2353	1678
			2354	1678
			2355	1677
			2356	1677
			2357	1676
			2358	1676
			2359	1676
			2360	1676
			2361	1675
			2362	1675
			2363	1675
			2364	1675
			2365	1675
			2366	1674
			2367	1674
			2368	1674
			2369	1674
			2370	1674
		</Outline2>
		<Outline3 type=matrix rownames=FALSE colnames=FALSE nrow=121 ncol=2 as.numeric=TRUE >
			2370	1674
			2371	1674
			2372	1674
			2373	1674
			2374	1674
			2375	1674
			2375	1673
			2376	1673
			2377	1673
			2378	1673
			2379	1673
			2380	1673
			2381	1673
			2382	1673
			2383	1673
			2384	1673
			2385	1673
			2386	1673
			2387	1673
			2388	1673
			2389	1673
			2390	1673
			2391	1673
			2392	1673
			2393	1673
			2394	1673
			2395	1673
			2395	1672
			2396	1672
			2397	1672
			2398	1672
			2399	1672
			2400	1671
			2401	1671
			2402	1671
			2403	1671
			2404	1670
			2405	1670
			2406	1670
			2407	1670
			2408	1670
			2409	1669
			2410	1669
			2411	1669
			2412	1669
			2413	1668
			2414	1668
			2415	1668
			2416	1667
			2417	1667
			2418	1667
			2419	1667
			2420	1667
			2421	1666
			2422	1666
			2423	1666
			2424	1666
			2425	1666
			2426	1666
			2427	1666
			2428	1666
			2429	1666
			2430	1666
			2431	1666
			2432	1666
			2433	1667
			2434	1667
			2435	1667
			2436	1667
			2437	1667
			2438	1668
			2439	1668
			2440	1669
			2441	1669
			2442	1669
			2443	1670
			2444	1670
			2445	1671
			2446	1671
			2447	1672
			2448	1673
			2449	1673
			2450	1674
			2451	1675
			2452	1676
			2453	1677
			2454	1678
			2455	1679
			2456	1680
			2457	1681
			2458	1682
			2459	1683
			2460	1684
			2461	1685
			2461	1686
			2462	1687
			2463	1688
			2464	1689
			2464	1690
			2465	1691
			2466	1692
			2466	1693
			2467	1694
			2467	1695
			2468	1696
			2468	1697
			2469	1698
			2470	1699
			2470	1700
			2471	1701
			2472	1702
			2472	1703
			2473	1704
			2474	1705
			2474	1706
			2475	1707
			2476	1708
			2476	1709
			2477	1710
			2478	1711
			2478	1712
		</Outline3>
		<Outline4 type=matrix rownames=FALSE colnames=FALSE nrow=130 ncol=2 as.numeric=TRUE >
			2478	1712
			2479	1713
			2479	1714
			2479	1715
			2479	1716
			2480	1716
			2480	1717
			2480	1718
			2480	1719
			2481	1720
			2481	1721
			2482	1722
			2482	1723
			2482	1724
			2482	1725
			2482	1726
			2482	1727
			2483	1727
			2483	1728
			2483	1729
			2483	1730
			2483	1731
			2483	1732
			2483	1733
			2483	1734
			2484	1735
			2484	1736
			2484	1737
			2484	1738
			2484	1739
			2484	1740
			2484	1741
			2484	1742
			2484	1743
			2484	1744
			2484	1745
			2484	1746
			2484	1747
			2485	1748
			2485	1749
			2485	1750
			2485	1751
			2485	1752
			2486	1753
			2486	1754
			2486	1755
			2486	1756
			2486	1757
			2486	1758
			2486	1759
			2486	1760
			2486	1761
			2486	1762
			2486	1763
			2486	1764
			2486	1765
			2486	1766
			2485	1767
			2485	1768
			2485	1769
			2485	1770
			2485	1771
			2485	1772
			2484	1773
			2484	1774
			2484	1775
			2483	1776
			2483	1777
			2483	1778
			2482	1779
			2482	1780
			2481	1781
			2481	1782
			2481	1783
			2480	1784
			2480	1785
			2479	1786
			2479	1787
			2478	1787
			2478	1788
			2477	1789
			2477	1790
			2476	1791
			2476	1792
			2475	1793
			2474	1794
			2473	1795
			2472	1796
			2471	1797
			2470	1798
			2470	1799
			2469	1800
			2468	1800
			2468	1801
			2467	1802
			2466	1803
			2465	1804
			2464	1805
			2463	1805
			2463	1806
			2462	1806
			2461	1807
			2460	1808
			2459	1809
			2458	1809
			2457	1810
			2456	1810
			2456	1811
			2455	1811
			2454	1811
			2453	1812
			2452	1812
			2451	1813
			2450	1813
			2449	1814
			2448	1814
			2447	1815
			2446	1815
			2445	1816
			2444	1816
			2443	1817
			2442	1817
			2442	1818
			2441	1818
			2440	1818
			2439	1819
			2438	1819
			2437	1820
			2436	1820
			2435	1821
		</Outline4>
	</curves.pixel>
	<curves.scaled type=list>
		<Outline1 type=matrix rownames=FALSE colnames=FALSE nrow=166 ncol=2 as.numeric=TRUE >
			35.5994152046784	-26.6228070175439
			35.5847953216374	-26.6374269005848
			35.5701754385965	-26.6520467836257
			35.5555555555556	-26.6666666666667
			35.5409356725146	-26.6812865497076
			35.5263157894737	-26.6959064327485
			35.5116959064327	-26.7105263157895
			35.4970760233918	-26.7251461988304
			35.4824561403509	-26.7397660818713
			35.4678362573099	-26.7543859649123
			35.453216374269	-26.7690058479532
			35.4385964912281	-26.7836257309941
			35.4239766081871	-26.7982456140351
			35.4093567251462	-26.812865497076
			35.3947368421053	-26.827485380117
			35.3801169590643	-26.8421052631579
			35.3654970760234	-26.8567251461988
			35.3508771929825	-26.8713450292398
			35.3362573099415	-26.8859649122807
			35.3216374269006	-26.8859649122807
			35.3070175438596	-26.9005847953216
			35.2923976608187	-26.9152046783626
			35.2777777777778	-26.9298245614035
			35.2631578947368	-26.9444444444444
			35.2485380116959	-26.9590643274854
			35.233918128655	-26.9736842105263
			35.219298245614	-26.9736842105263
			35.2046783625731	-26.9883040935673
			35.1900584795322	-27.0029239766082
			35.1754385964912	-27.0175438596491
			35.1608187134503	-27.0321637426901
			35.1461988304094	-27.0321637426901
			35.1315789473684	-27.046783625731
			35.1169590643275	-27.0614035087719
			35.1023391812865	-27.0760233918129
			35.0877192982456	-27.0760233918129
			35.0730994152047	-27.0906432748538
			35.0584795321637	-27.1052631578947
			35.0438596491228	-27.1052631578947
			35.0292397660819	-27.1198830409357
			35.0146198830409	-27.1198830409357
			35	-27.1345029239766
			34.9853801169591	-27.1345029239766
			34.9707602339181	-27.1491228070175
			34.9561403508772	-27.1491228070175
			34.9415204678363	-27.1637426900585
			34.9269005847953	-27.1637426900585
			34.9122807017544	-27.1783625730994
			34.8976608187134	-27.1783625730994
			34.8830409356725	-27.1783625730994
			34.8684210526316	-27.1929824561403
			34.8538011695906	-27.1929824561403
			34.8391812865497	-27.1929824561403
			34.8245614035088	-27.1929824561403
			34.8099415204678	-27.1929824561403
			34.7953216374269	-27.1929824561403
			34.780701754386	-27.1929824561403
			34.766081871345	-27.1929824561403
			34.7514619883041	-27.1929824561403
			34.7368421052632	-27.1929824561403
			34.7222222222222	-27.1929824561403
			34.7076023391813	-27.1929824561403
			34.6929824561403	-27.1929824561403
			34.6783625730994	-27.1929824561403
			34.6637426900585	-27.1929824561403
			34.6491228070175	-27.1929824561403
			34.6345029239766	-27.1929824561403
			34.6198830409357	-27.1929824561403
			34.6052631578947	-27.1929824561403
			34.5906432748538	-27.1929824561403
			34.5760233918129	-27.1929824561403
			34.5614035087719	-27.1929824561403
			34.546783625731	-27.1783625730994
			34.5321637426901	-27.1783625730994
			34.5175438596491	-27.1783625730994
			34.5029239766082	-27.1783625730994
			34.4883040935673	-27.1637426900585
			34.4736842105263	-27.1637426900585
			34.4590643274854	-27.1637426900585
			34.4444444444444	-27.1491228070175
			34.4298245614035	-27.1491228070175
			34.4152046783626	-27.1345029239766
			34.4005847953216	-27.1345029239766
			34.3859649122807	-27.1198830409357
			34.3713450292398	-27.1198830409357
			34.3567251461988	-27.1052631578947
			34.3421052631579	-27.0906432748538
			34.327485380117	-27.0906432748538
			34.312865497076	-27.0760233918129
			34.2982456140351	-27.0760233918129
			34.2836257309942	-27.0614035087719
			34.2690058479532	-27.046783625731
			34.2543859649123	-27.046783625731
			34.2397660818713	-27.0321637426901
			34.2397660818713	-27.0175438596491
			34.2251461988304	-27.0175438596491
			34.2105263157895	-27.0029239766082
			34.1959064327485	-26.9883040935673
			34.1959064327485	-26.9736842105263
			34.1812865497076	-26.9590643274854
			34.1666666666667	-26.9444444444444
			34.1520467836257	-26.9298245614035
			34.1520467836257	-26.9152046783626
			34.1374269005848	-26.9005847953216
			34.1228070175439	-26.8859649122807
			34.1228070175439	-26.8713450292398
			34.1081871345029	-26.8567251461988
			34.093567251462	-26.8421052631579
			34.093567251462	-26.827485380117
			34.093567251462	-26.812865497076
			34.078947368421	-26.7982456140351
			34.078947368421	-26.7836257309941
			34.078947368421	-26.7690058479532
			34.0643274853801	-26.7543859649123
			34.0643274853801	-26.7397660818713
			34.0643274853801	-26.7251461988304
			34.0643274853801	-26.7105263157895
			34.0643274853801	-26.6959064327485
			34.0497076023392	-26.6959064327485
			34.0497076023392	-26.6812865497076
			34.0497076023392	-26.6666666666667
			34.0497076023392	-26.6520467836257
			34.0497076023392	-26.6374269005848
			34.0497076023392	-26.6228070175439
			34.0497076023392	-26.6081871345029
			34.0497076023392	-26.593567251462
			34.0497076023392	-26.5789473684211
			34.0497076023392	-26.5643274853801
			34.0497076023392	-26.5497076023392
			34.0497076023392	-26.5350877192982
			34.0497076023392	-26.5204678362573
			34.0497076023392	-26.5058479532164
			34.0497076023392	-26.4912280701754
			34.0497076023392	-26.4766081871345
			34.0497076023392	-26.4619883040936
			34.0497076023392	-26.4473684210526
			34.0497076023392	-26.4327485380117
			34.0497076023392	-26.4181286549708
			34.0497076023392	-26.4035087719298
			34.0497076023392	-26.3888888888889
			34.0497076023392	-26.374269005848
			34.0497076023392	-26.359649122807
			34.0497076023392	-26.3450292397661
			34.0497076023392	-26.3304093567251
			34.0497076023392	-26.3157894736842
			34.0497076023392	-26.3011695906433
			34.0497076023392	-26.2865497076023
			34.0497076023392	-26.2719298245614
			34.0497076023392	-26.2573099415205
			34.0497076023392	-26.2426900584795
			34.0497076023392	-26.2280701754386
			34.0497076023392	-26.2134502923977
			34.0497076023392	-26.1988304093567
			34.0497076023392	-26.1842105263158
			34.0497076023392	-26.1695906432749
			34.0497076023392	-26.1549707602339
			34.0497076023392	-26.140350877193
			34.0497076023392	-26.125730994152
			34.0497076023392	-26.1111111111111
			34.0497076023392	-26.0964912280702
			34.0497076023392	-26.0818713450292
			34.0497076023392	-26.0672514619883
			34.0497076023392	-26.0526315789474
			34.0497076023392	-26.0380116959064
			34.0497076023392	-26.0233918128655
			34.0497076023392	-26.0087719298246
		</Outline1>
		<Outline2 type=matrix rownames=FALSE colnames=FALSE nrow=126 ncol=2 as.numeric=TRUE >
			34.0497076023392	-26.0087719298246
			34.0497076023392	-25.9941520467836
			34.0497076023392	-25.9795321637427
			34.0350877192982	-25.9649122807018
			34.0350877192982	-25.9502923976608
			34.0350877192982	-25.9356725146199
			34.0350877192982	-25.9210526315789
			34.0350877192982	-25.906432748538
			34.0204678362573	-25.906432748538
			34.0204678362573	-25.8918128654971
			34.0204678362573	-25.8771929824561
			34.0204678362573	-25.8625730994152
			34.0204678362573	-25.8479532163743
			34.0058479532164	-25.8333333333333
			34.0058479532164	-25.8187134502924
			34.0058479532164	-25.8040935672515
			34.0058479532164	-25.7894736842105
			34.0058479532164	-25.7748538011696
			33.9912280701754	-25.7602339181287
			33.9912280701754	-25.7456140350877
			33.9912280701754	-25.7309941520468
			33.9912280701754	-25.7163742690058
			33.9912280701754	-25.7017543859649
			33.9912280701754	-25.687134502924
			33.9912280701754	-25.672514619883
			33.9766081871345	-25.6578947368421
			33.9766081871345	-25.6432748538012
			33.9766081871345	-25.6286549707602
			33.9766081871345	-25.6140350877193
			33.9766081871345	-25.5994152046784
			33.9766081871345	-25.5847953216374
			33.9766081871345	-25.5701754385965
			33.9766081871345	-25.5555555555556
			33.9766081871345	-25.5409356725146
			33.9766081871345	-25.5263157894737
			33.9766081871345	-25.5116959064327
			33.9619883040936	-25.4970760233918
			33.9619883040936	-25.4824561403509
			33.9619883040936	-25.4678362573099
			33.9619883040936	-25.453216374269
			33.9619883040936	-25.4385964912281
			33.9619883040936	-25.4239766081871
			33.9619883040936	-25.4093567251462
			33.9619883040936	-25.3947368421053
			33.9619883040936	-25.3801169590643
			33.9619883040936	-25.3654970760234
			33.9766081871345	-25.3508771929825
			33.9766081871345	-25.3362573099415
			33.9766081871345	-25.3216374269006
			33.9766081871345	-25.3070175438596
			33.9766081871345	-25.2923976608187
			33.9766081871345	-25.2777777777778
			33.9766081871345	-25.2631578947368
			33.9766081871345	-25.2485380116959
			33.9766081871345	-25.233918128655
			33.9912280701754	-25.219298245614
			33.9912280701754	-25.2046783625731
			33.9912280701754	-25.1900584795322
			33.9912280701754	-25.1754385964912
			33.9912280701754	-25.1608187134503
			33.9912280701754	-25.1461988304094
			33.9912280701754	-25.1315789473684
			33.9912280701754	-25.1169590643275
			34.0058479532164	-25.1023391812865
			34.0058479532164	-25.0877192982456
			34.0058479532164	-25.0730994152047
			34.0058479532164	-25.0584795321637
			34.0058479532164	-25.0438596491228
			34.0058479532164	-25.0292397660819
			34.0058479532164	-25.0146198830409
			34.0204678362573	-25
			34.0204678362573	-24.9853801169591
			34.0204678362573	-24.9707602339181
			34.0204678362573	-24.9561403508772
			34.0204678362573	-24.9415204678363
			34.0350877192982	-24.9269005847953
			34.0350877192982	-24.9122807017544
			34.0350877192982	-24.8976608187134
			34.0497076023392	-24.8830409356725
			34.0497076023392	-24.8684210526316
			34.0643274853801	-24.8538011695906
			34.0643274853801	-24.8391812865497
			34.078947368421	-24.8245614035088
			34.078947368421	-24.8099415204678
			34.093567251462	-24.7953216374269
			34.093567251462	-24.780701754386
			34.1081871345029	-24.766081871345
			34.1228070175439	-24.7514619883041
			34.1374269005848	-24.7368421052632
			34.1520467836257	-24.7222222222222
			34.1666666666667	-24.7076023391813
			34.1812865497076	-24.6929824561403
			34.1812865497076	-24.6783625730994
			34.1959064327485	-24.6783625730994
			34.2105263157895	-24.6637426900585
			34.2251461988304	-24.6491228070175
			34.2397660818713	-24.6491228070175
			34.2543859649123	-24.6345029239766
			34.2690058479532	-24.6198830409357
			34.2836257309942	-24.6052631578947
			34.2982456140351	-24.6052631578947
			34.312865497076	-24.5906432748538
			34.327485380117	-24.5760233918129
			34.3421052631579	-24.5760233918129
			34.3421052631579	-24.5614035087719
			34.3567251461988	-24.5614035087719
			34.3713450292398	-24.546783625731
			34.3859649122807	-24.5321637426901
			34.4005847953216	-24.5321637426901
			34.4152046783626	-24.5321637426901
			34.4298245614035	-24.5175438596491
			34.4444444444444	-24.5175438596491
			34.4590643274854	-24.5029239766082
			34.4736842105263	-24.5029239766082
			34.4883040935673	-24.5029239766082
			34.5029239766082	-24.5029239766082
			34.5175438596491	-24.4883040935673
			34.5321637426901	-24.4883040935673
			34.546783625731	-24.4883040935673
			34.5614035087719	-24.4883040935673
			34.5760233918129	-24.4883040935673
			34.5906432748538	-24.4736842105263
			34.6052631578947	-24.4736842105263
			34.6198830409357	-24.4736842105263
			34.6345029239766	-24.4736842105263
			34.6491228070175	-24.4736842105263
		</Outline2>
		<Outline3 type=matrix rownames=FALSE colnames=FALSE nrow=121 ncol=2 as.numeric=TRUE >
			34.6491228070175	-24.4736842105263
			34.6637426900585	-24.4736842105263
			34.6783625730994	-24.4736842105263
			34.6929824561403	-24.4736842105263
			34.7076023391813	-24.4736842105263
			34.7222222222222	-24.4736842105263
			34.7222222222222	-24.4590643274854
			34.7368421052632	-24.4590643274854
			34.7514619883041	-24.4590643274854
			34.766081871345	-24.4590643274854
			34.780701754386	-24.4590643274854
			34.7953216374269	-24.4590643274854
			34.8099415204678	-24.4590643274854
			34.8245614035088	-24.4590643274854
			34.8391812865497	-24.4590643274854
			34.8538011695906	-24.4590643274854
			34.8684210526316	-24.4590643274854
			34.8830409356725	-24.4590643274854
			34.8976608187134	-24.4590643274854
			34.9122807017544	-24.4590643274854
			34.9269005847953	-24.4590643274854
			34.9415204678363	-24.4590643274854
			34.9561403508772	-24.4590643274854
			34.9707602339181	-24.4590643274854
			34.9853801169591	-24.4590643274854
			35	-24.4590643274854
			35.0146198830409	-24.4590643274854
			35.0146198830409	-24.4444444444444
			35.0292397660819	-24.4444444444444
			35.0438596491228	-24.4444444444444
			35.0584795321637	-24.4444444444444
			35.0730994152047	-24.4444444444444
			35.0877192982456	-24.4298245614035
			35.1023391812865	-24.4298245614035
			35.1169590643275	-24.4298245614035
			35.1315789473684	-24.4298245614035
			35.1461988304094	-24.4152046783626
			35.1608187134503	-24.4152046783626
			35.1754385964912	-24.4152046783626
			35.1900584795322	-24.4152046783626
			35.2046783625731	-24.4152046783626
			35.219298245614	-24.4005847953216
			35.233918128655	-24.4005847953216
			35.2485380116959	-24.4005847953216
			35.2631578947368	-24.4005847953216
			35.2777777777778	-24.3859649122807
			35.2923976608187	-24.3859649122807
			35.3070175438596	-24.3859649122807
			35.3216374269006	-24.3713450292398
			35.3362573099415	-24.3713450292398
			35.3508771929825	-24.3713450292398
			35.3654970760234	-24.3713450292398
			35.3801169590643	-24.3713450292398
			35.3947368421053	-24.3567251461988
			35.4093567251462	-24.3567251461988
			35.4239766081871	-24.3567251461988
			35.4385964912281	-24.3567251461988
			35.453216374269	-24.3567251461988
			35.4678362573099	-24.3567251461988
			35.4824561403509	-24.3567251461988
			35.4970760233918	-24.3567251461988
			35.5116959064327	-24.3567251461988
			35.5263157894737	-24.3567251461988
			35.5409356725146	-24.3567251461988
			35.5555555555556	-24.3567251461988
			35.5701754385965	-24.3713450292398
			35.5847953216374	-24.3713450292398
			35.5994152046784	-24.3713450292398
			35.6140350877193	-24.3713450292398
			35.6286549707602	-24.3713450292398
			35.6432748538012	-24.3859649122807
			35.6578947368421	-24.3859649122807
			35.672514619883	-24.4005847953216
			35.687134502924	-24.4005847953216
			35.7017543859649	-24.4005847953216
			35.7163742690058	-24.4152046783626
			35.7309941520468	-24.4152046783626
			35.7456140350877	-24.4298245614035
			35.7602339181287	-24.4298245614035
			35.7748538011696	-24.4444444444444
			35.7894736842105	-24.4590643274854
			35.8040935672515	-24.4590643274854
			35.8187134502924	-24.4736842105263
			35.8333333333333	-24.4883040935673
			35.8479532163743	-24.5029239766082
			35.8625730994152	-24.5175438596491
			35.8771929824561	-24.5321637426901
			35.8918128654971	-24.546783625731
			35.906432748538	-24.5614035087719
			35.9210526315789	-24.5760233918129
			35.9356725146199	-24.5906432748538
			35.9502923976608	-24.6052631578947
			35.9649122807018	-24.6198830409357
			35.9795321637427	-24.6345029239766
			35.9795321637427	-24.6491228070175
			35.9941520467836	-24.6637426900585
			36.0087719298246	-24.6783625730994
			36.0233918128655	-24.6929824561403
			36.0233918128655	-24.7076023391813
			36.0380116959064	-24.7222222222222
			36.0526315789474	-24.7368421052632
			36.0526315789474	-24.7514619883041
			36.0672514619883	-24.766081871345
			36.0672514619883	-24.780701754386
			36.0818713450292	-24.7953216374269
			36.0818713450292	-24.8099415204678
			36.0964912280702	-24.8245614035088
			36.1111111111111	-24.8391812865497
			36.1111111111111	-24.8538011695906
			36.125730994152	-24.8684210526316
			36.140350877193	-24.8830409356725
			36.140350877193	-24.8976608187134
			36.1549707602339	-24.9122807017544
			36.1695906432749	-24.9269005847953
			36.1695906432749	-24.9415204678363
			36.1842105263158	-24.9561403508772
			36.1988304093567	-24.9707602339181
			36.1988304093567	-24.9853801169591
			36.2134502923977	-25
			36.2280701754386	-25.0146198830409
			36.2280701754386	-25.0292397660819
		</Outline3>
		<Outline4 type=matrix rownames=FALSE colnames=FALSE nrow=130 ncol=2 as.numeric=TRUE >
			36.2280701754386	-25.0292397660819
			36.2426900584795	-25.0438596491228
			36.2426900584795	-25.0584795321637
			36.2426900584795	-25.0730994152047
			36.2426900584795	-25.0877192982456
			36.2573099415205	-25.0877192982456
			36.2573099415205	-25.1023391812865
			36.2573099415205	-25.1169590643275
			36.2573099415205	-25.1315789473684
			36.2719298245614	-25.1461988304094
			36.2719298245614	-25.1608187134503
			36.2865497076023	-25.1754385964912
			36.2865497076023	-25.1900584795322
			36.2865497076023	-25.2046783625731
			36.2865497076023	-25.219298245614
			36.2865497076023	-25.233918128655
			36.2865497076023	-25.2485380116959
			36.3011695906433	-25.2485380116959
			36.3011695906433	-25.2631578947368
			36.3011695906433	-25.2777777777778
			36.3011695906433	-25.2923976608187
			36.3011695906433	-25.3070175438596
			36.3011695906433	-25.3216374269006
			36.3011695906433	-25.3362573099415
			36.3011695906433	-25.3508771929825
			36.3157894736842	-25.3654970760234
			36.3157894736842	-25.3801169590643
			36.3157894736842	-25.3947368421053
			36.3157894736842	-25.4093567251462
			36.3157894736842	-25.4239766081871
			36.3157894736842	-25.4385964912281
			36.3157894736842	-25.453216374269
			36.3157894736842	-25.4678362573099
			36.3157894736842	-25.4824561403509
			36.3157894736842	-25.4970760233918
			36.3157894736842	-25.5116959064327
			36.3157894736842	-25.5263157894737
			36.3157894736842	-25.5409356725146
			36.3304093567251	-25.5555555555556
			36.3304093567251	-25.5701754385965
			36.3304093567251	-25.5847953216374
			36.3304093567251	-25.5994152046784
			36.3304093567251	-25.6140350877193
			36.3450292397661	-25.6286549707602
			36.3450292397661	-25.6432748538012
			36.3450292397661	-25.6578947368421
			36.3450292397661	-25.672514619883
			36.3450292397661	-25.687134502924
			36.3450292397661	-25.7017543859649
			36.3450292397661	-25.7163742690058
			36.3450292397661	-25.7309941520468
			36.3450292397661	-25.7456140350877
			36.3450292397661	-25.7602339181287
			36.3450292397661	-25.7748538011696
			36.3450292397661	-25.7894736842105
			36.3450292397661	-25.8040935672515
			36.3450292397661	-25.8187134502924
			36.3304093567251	-25.8333333333333
			36.3304093567251	-25.8479532163743
			36.3304093567251	-25.8625730994152
			36.3304093567251	-25.8771929824561
			36.3304093567251	-25.8918128654971
			36.3304093567251	-25.906432748538
			36.3157894736842	-25.9210526315789
			36.3157894736842	-25.9356725146199
			36.3157894736842	-25.9502923976608
			36.3011695906433	-25.9649122807018
			36.3011695906433	-25.9795321637427
			36.3011695906433	-25.9941520467836
			36.2865497076023	-26.0087719298246
			36.2865497076023	-26.0233918128655
			36.2719298245614	-26.0380116959064
			36.2719298245614	-26.0526315789474
			36.2719298245614	-26.0672514619883
			36.2573099415205	-26.0818713450292
			36.2573099415205	-26.0964912280702
			36.2426900584795	-26.1111111111111
			36.2426900584795	-26.125730994152
			36.2280701754386	-26.125730994152
			36.2280701754386	-26.140350877193
			36.2134502923977	-26.1549707602339
			36.2134502923977	-26.1695906432749
			36.1988304093567	-26.1842105263158
			36.1988304093567	-26.1988304093567
			36.1842105263158	-26.2134502923977
			36.1695906432749	-26.2280701754386
			36.1549707602339	-26.2426900584795
			36.140350877193	-26.2573099415205
			36.125730994152	-26.2719298245614
			36.1111111111111	-26.2865497076023
			36.1111111111111	-26.3011695906433
			36.0964912280702	-26.3157894736842
			36.0818713450292	-26.3157894736842
			36.0818713450292	-26.3304093567251
			36.0672514619883	-26.3450292397661
			36.0526315789474	-26.359649122807
			36.0380116959064	-26.374269005848
			36.0233918128655	-26.3888888888889
			36.0087719298246	-26.3888888888889
			36.0087719298246	-26.4035087719298
			35.9941520467836	-26.4035087719298
			35.9795321637427	-26.4181286549708
			35.9649122807018	-26.4327485380117
			35.9502923976608	-26.4473684210526
			35.9356725146199	-26.4473684210526
			35.9210526315789	-26.4619883040936
			35.906432748538	-26.4619883040936
			35.906432748538	-26.4766081871345
			35.8918128654971	-26.4766081871345
			35.8771929824561	-26.4766081871345
			35.8625730994152	-26.4912280701754
			35.8479532163743	-26.4912280701754
			35.8333333333333	-26.5058479532164
			35.8187134502924	-26.5058479532164
			35.8040935672515	-26.5204678362573
			35.7894736842105	-26.5204678362573
			35.7748538011696	-26.5350877192982
			35.7602339181287	-26.5350877192982
			35.7456140350877	-26.5497076023392
			35.7309941520468	-26.5497076023392
			35.7163742690058	-26.5643274853801
			35.7017543859649	-26.5643274853801
			35.7017543859649	-26.5789473684211
			35.687134502924	-26.5789473684211
			35.672514619883	-26.5789473684211
			35.6578947368421	-26.593567251462
			35.6432748538012	-26.593567251462
			35.6286549707602	-26.6081871345029
			35.6140350877193	-26.6081871345029
			35.5994152046784	-26.6228070175439
		</Outline4>
	</curves.scaled>
	<ruler.points type=matrix rownames=TRUE colnames=FALSE nrow=2 ncol=2 as.numeric=TRUE >
		Ruler point 1	2916	2687
		Ruler point 2	2232	2687
	</ruler.points>
</shapes>

