<shapes type=list>
	<ruler.pixel type=vector names=FALSE length=1 as.numeric=TRUE >690.018115704218</ruler.pixel>
	<ruler.interval type=vector names=FALSE length=1 as.numeric=TRUE >10</ruler.interval>
	<scaling.units type=vector names=FALSE length=1 as.numeric=FALSE >mm</scaling.units>
	<scaling type=vector names=FALSE length=1 as.numeric=TRUE >0.0144923731310941</scaling>
	<landmarks.pixel type=matrix rownames=TRUE colnames=FALSE nrow=4 ncol=2 as.numeric=TRUE >
		Labial	2426	1583
		Posterior	2321	1536
		Lingual	2374	1431
		Anterior	2480	1481
	</landmarks.pixel>
	<landmarks.scaled type=matrix rownames=TRUE colnames=FALSE nrow=4 ncol=2 as.numeric=TRUE >
		Labial	35.1584972160343	-22.941426666522
		Posterior	33.6367980372694	-22.2602851293606
		Lingual	34.4048938132174	-20.7385859505957
		Anterior	35.9410853651134	-21.4632046071504
	</landmarks.scaled>
	<curves.control type=list>
		<Outline1 type=matrix rownames=FALSE colnames=FALSE nrow=19 ncol=2 as.numeric=TRUE >
			2426	1583
			2420	1587
			2415	1591
			2409	1596
			2402	1603
			2396	1608
			2390	1613
			2383	1617
			2374	1619
			2366	1620
			2358	1620
			2349	1618
			2342	1615
			2334	1609
			2329	1603
			2324	1597
			2320	1591
			2317	1584
			2321	1536
		</Outline1>
		<Outline2 type=matrix rownames=FALSE colnames=FALSE nrow=15 ncol=2 as.numeric=TRUE >
			2321	1536
			2322	1519
			2321	1501
			2320	1487
			2321	1474
			2321	1461
			2323	1449
			2328	1443
			2336	1439
			2345	1437
			2352	1436
			2360	1435
			2367	1435
			2371	1434
			2374	1431
		</Outline2>
		<Outline3 type=matrix rownames=FALSE colnames=FALSE nrow=23 ncol=2 as.numeric=TRUE >
			2374	1431
			2380	1428
			2387	1426
			2394	1426
			2400	1426
			2406	1426
			2412	1423
			2418	1421
			2426	1420
			2434	1420
			2440	1422
			2445	1425
			2450	1428
			2455	1431
			2458	1435
			2461	1440
			2463	1446
			2468	1451
			2472	1457
			2475	1463
			2477	1470
			2479	1476
			2480	1481
		</Outline3>
		<Outline4 type=matrix rownames=FALSE colnames=FALSE nrow=17 ncol=2 as.numeric=TRUE >
			2480	1481
			2483	1489
			2486	1497
			2487	1506
			2487	1515
			2487	1524
			2485	1532
			2481	1541
			2476	1549
			2469	1557
			2464	1563
			2459	1567
			2453	1571
			2447	1574
			2441	1577
			2434	1579
			2426	1583
		</Outline4>
	</curves.control>
	<curves.pixel type=list>
		<Outline1 type=matrix rownames=FALSE colnames=FALSE nrow=174 ncol=2 as.numeric=TRUE >
			2426	1583
			2425	1583
			2425	1584
			2424	1584
			2424	1585
			2423	1585
			2422	1586
			2421	1587
			2420	1587
			2419	1588
			2418	1589
			2417	1590
			2416	1590
			2415	1591
			2414	1592
			2413	1593
			2412	1593
			2411	1594
			2411	1595
			2410	1595
			2409	1596
			2408	1597
			2408	1598
			2407	1598
			2406	1599
			2405	1600
			2404	1601
			2403	1602
			2402	1603
			2401	1604
			2400	1604
			2399	1605
			2399	1606
			2398	1607
			2397	1607
			2396	1608
			2395	1609
			2394	1609
			2393	1610
			2393	1611
			2392	1611
			2391	1612
			2390	1613
			2389	1613
			2388	1614
			2387	1615
			2386	1615
			2385	1615
			2384	1616
			2383	1616
			2382	1617
			2381	1617
			2380	1617
			2379	1618
			2378	1618
			2377	1618
			2376	1619
			2375	1619
			2374	1619
			2373	1619
			2372	1619
			2371	1619
			2370	1619
			2369	1620
			2368	1620
			2367	1620
			2366	1620
			2365	1620
			2364	1620
			2363	1620
			2362	1620
			2361	1620
			2360	1620
			2359	1620
			2358	1620
			2357	1620
			2356	1620
			2355	1619
			2354	1619
			2353	1619
			2352	1618
			2351	1618
			2350	1618
			2349	1618
			2348	1617
			2347	1617
			2346	1617
			2345	1616
			2344	1616
			2343	1616
			2342	1615
			2341	1614
			2340	1613
			2339	1613
			2338	1612
			2337	1611
			2336	1610
			2335	1609
			2334	1608
			2333	1607
			2332	1607
			2332	1606
			2331	1605
			2330	1605
			2330	1604
			2329	1603
			2328	1602
			2327	1601
			2326	1600
			2326	1599
			2325	1598
			2325	1597
			2324	1597
			2323	1596
			2323	1595
			2322	1594
			2321	1593
			2321	1592
			2320	1591
			2320	1590
			2319	1589
			2319	1588
			2319	1587
			2319	1586
			2319	1585
			2319	1584
			2319	1583
			2319	1582
			2319	1581
			2319	1580
			2319	1579
			2319	1578
			2319	1577
			2319	1576
			2319	1575
			2319	1574
			2319	1573
			2319	1572
			2319	1571
			2319	1570
			2319	1569
			2319	1568
			2319	1567
			2319	1566
			2319	1565
			2319	1564
			2319	1563
			2319	1562
			2319	1561
			2319	1560
			2319	1559
			2319	1558
			2319	1557
			2320	1556
			2320	1555
			2320	1554
			2320	1553
			2320	1552
			2320	1551
			2320	1550
			2320	1549
			2320	1548
			2320	1547
			2320	1546
			2320	1545
			2320	1544
			2320	1543
			2321	1542
			2321	1541
			2321	1540
			2321	1539
			2321	1538
			2321	1537
			2321	1536
		</Outline1>
		<Outline2 type=matrix rownames=FALSE colnames=FALSE nrow=141 ncol=2 as.numeric=TRUE >
			2321	1536
			2321	1535
			2321	1534
			2321	1533
			2321	1532
			2321	1531
			2321	1530
			2321	1529
			2321	1528
			2321	1527
			2321	1526
			2321	1525
			2321	1524
			2321	1523
			2321	1522
			2321	1521
			2321	1520
			2321	1519
			2321	1518
			2321	1517
			2321	1516
			2321	1515
			2321	1514
			2321	1513
			2321	1512
			2321	1511
			2321	1510
			2321	1509
			2321	1508
			2321	1507
			2321	1506
			2321	1505
			2321	1504
			2321	1503
			2321	1502
			2321	1501
			2321	1500
			2321	1499
			2321	1498
			2321	1497
			2321	1496
			2321	1495
			2321	1494
			2321	1493
			2321	1492
			2321	1491
			2321	1490
			2321	1489
			2321	1488
			2321	1487
			2321	1486
			2321	1485
			2321	1484
			2321	1483
			2321	1482
			2321	1481
			2321	1480
			2321	1479
			2321	1478
			2321	1477
			2321	1476
			2321	1475
			2321	1474
			2321	1473
			2321	1472
			2321	1471
			2321	1470
			2321	1469
			2321	1468
			2321	1467
			2321	1466
			2321	1465
			2321	1464
			2321	1463
			2321	1462
			2321	1461
			2322	1461
			2322	1460
			2322	1459
			2322	1458
			2322	1457
			2322	1456
			2322	1455
			2322	1454
			2322	1453
			2323	1452
			2323	1451
			2323	1450
			2323	1449
			2324	1448
			2324	1447
			2325	1447
			2326	1446
			2327	1445
			2328	1444
			2329	1443
			2330	1443
			2331	1442
			2332	1441
			2333	1441
			2334	1440
			2335	1440
			2336	1439
			2337	1439
			2338	1439
			2339	1438
			2340	1438
			2341	1438
			2342	1438
			2343	1438
			2344	1437
			2345	1437
			2346	1437
			2347	1437
			2348	1437
			2349	1436
			2350	1436
			2351	1436
			2352	1436
			2353	1436
			2354	1436
			2355	1436
			2356	1436
			2357	1435
			2358	1435
			2359	1435
			2360	1435
			2361	1435
			2362	1435
			2363	1435
			2364	1435
			2365	1435
			2366	1435
			2367	1435
			2368	1435
			2369	1434
			2370	1434
			2371	1433
			2372	1433
			2373	1432
			2374	1431
		</Outline2>
		<Outline3 type=matrix rownames=FALSE colnames=FALSE nrow=137 ncol=2 as.numeric=TRUE >
			2374	1431
			2375	1431
			2376	1430
			2377	1430
			2378	1429
			2379	1429
			2380	1428
			2381	1428
			2382	1428
			2383	1427
			2384	1427
			2385	1427
			2386	1426
			2387	1426
			2388	1426
			2389	1426
			2390	1426
			2391	1426
			2392	1426
			2393	1426
			2394	1426
			2395	1426
			2396	1426
			2397	1426
			2398	1426
			2399	1426
			2400	1426
			2401	1426
			2402	1426
			2403	1426
			2404	1426
			2405	1426
			2406	1425
			2407	1425
			2408	1425
			2409	1424
			2410	1424
			2411	1423
			2412	1423
			2413	1423
			2414	1422
			2415	1422
			2416	1422
			2417	1422
			2418	1421
			2419	1421
			2420	1421
			2421	1421
			2422	1421
			2423	1420
			2424	1420
			2425	1420
			2426	1420
			2427	1420
			2428	1420
			2429	1420
			2430	1420
			2431	1420
			2432	1420
			2433	1420
			2434	1421
			2435	1421
			2436	1421
			2437	1421
			2438	1421
			2438	1422
			2439	1422
			2440	1422
			2441	1422
			2441	1423
			2442	1423
			2443	1424
			2444	1424
			2445	1425
			2446	1426
			2447	1426
			2448	1427
			2449	1427
			2449	1428
			2450	1428
			2451	1429
			2452	1429
			2453	1430
			2454	1431
			2455	1432
			2456	1433
			2457	1434
			2458	1435
			2459	1436
			2459	1437
			2460	1438
			2460	1439
			2461	1440
			2461	1441
			2462	1442
			2462	1443
			2462	1444
			2463	1445
			2463	1446
			2464	1447
			2465	1448
			2466	1449
			2467	1450
			2467	1451
			2468	1452
			2469	1452
			2469	1453
			2470	1454
			2471	1455
			2471	1456
			2472	1456
			2472	1457
			2473	1458
			2473	1459
			2473	1460
			2474	1461
			2474	1462
			2474	1463
			2475	1463
			2475	1464
			2475	1465
			2476	1466
			2476	1467
			2476	1468
			2477	1469
			2477	1470
			2477	1471
			2478	1472
			2478	1473
			2478	1474
			2479	1475
			2479	1476
			2479	1477
			2479	1478
			2480	1479
			2480	1480
			2480	1481
		</Outline3>
		<Outline4 type=matrix rownames=FALSE colnames=FALSE nrow=127 ncol=2 as.numeric=TRUE >
			2480	1481
			2480	1482
			2481	1483
			2481	1484
			2481	1485
			2482	1486
			2482	1487
			2483	1488
			2483	1489
			2483	1490
			2484	1491
			2484	1492
			2484	1493
			2485	1493
			2485	1494
			2485	1495
			2486	1496
			2486	1497
			2486	1498
			2486	1499
			2486	1500
			2486	1501
			2487	1502
			2487	1503
			2487	1504
			2487	1505
			2487	1506
			2487	1507
			2487	1508
			2487	1509
			2487	1510
			2487	1511
			2487	1512
			2487	1513
			2487	1514
			2487	1515
			2487	1516
			2487	1517
			2487	1518
			2487	1519
			2487	1520
			2487	1521
			2487	1522
			2487	1523
			2486	1524
			2486	1525
			2486	1526
			2486	1527
			2486	1528
			2486	1529
			2486	1530
			2485	1531
			2485	1532
			2485	1533
			2484	1534
			2484	1535
			2483	1536
			2483	1537
			2482	1538
			2482	1539
			2481	1540
			2481	1541
			2480	1542
			2480	1543
			2479	1544
			2478	1545
			2478	1546
			2477	1547
			2477	1548
			2476	1548
			2476	1549
			2475	1550
			2474	1551
			2473	1552
			2473	1553
			2472	1554
			2471	1554
			2471	1555
			2470	1556
			2469	1557
			2469	1558
			2468	1558
			2467	1559
			2467	1560
			2466	1561
			2465	1561
			2465	1562
			2464	1563
			2463	1564
			2462	1565
			2461	1565
			2460	1566
			2459	1567
			2458	1567
			2457	1568
			2456	1569
			2455	1570
			2454	1570
			2453	1571
			2452	1571
			2451	1572
			2450	1572
			2449	1573
			2448	1573
			2447	1574
			2446	1574
			2445	1575
			2444	1575
			2443	1576
			2442	1576
			2442	1577
			2441	1577
			2440	1577
			2439	1578
			2438	1578
			2437	1578
			2436	1579
			2435	1579
			2434	1580
			2433	1580
			2432	1580
			2431	1581
			2430	1581
			2429	1582
			2428	1582
			2427	1583
			2426	1583
		</Outline4>
	</curves.pixel>
	<curves.scaled type=list>
		<Outline1 type=matrix rownames=FALSE colnames=FALSE nrow=174 ncol=2 as.numeric=TRUE >
			35.1584972160343	-22.941426666522
			35.1440048429032	-22.941426666522
			35.1440048429032	-22.9559190396531
			35.1295124697721	-22.9559190396531
			35.1295124697721	-22.9704114127842
			35.115020096641	-22.9704114127842
			35.1005277235099	-22.9849037859153
			35.0860353503788	-22.9993961590464
			35.0715429772477	-22.9993961590464
			35.0570506041167	-23.0138885321774
			35.0425582309856	-23.0283809053085
			35.0280658578545	-23.0428732784396
			35.0135734847234	-23.0428732784396
			34.9990811115923	-23.0573656515707
			34.9845887384612	-23.0718580247018
			34.9700963653301	-23.0863503978329
			34.955603992199	-23.0863503978329
			34.9411116190679	-23.100842770964
			34.9411116190679	-23.1153351440951
			34.9266192459368	-23.1153351440951
			34.9121268728057	-23.1298275172262
			34.8976344996746	-23.1443198903573
			34.8976344996746	-23.1588122634884
			34.8831421265435	-23.1588122634884
			34.8686497534124	-23.1733046366195
			34.8541573802813	-23.1877970097506
			34.8396650071502	-23.2022893828817
			34.8251726340191	-23.2167817560128
			34.8106802608881	-23.2312741291439
			34.796187887757	-23.245766502275
			34.7816955146259	-23.245766502275
			34.7672031414948	-23.260258875406
			34.7672031414948	-23.2747512485371
			34.7527107683637	-23.2892436216682
			34.7382183952326	-23.2892436216682
			34.7237260221015	-23.3037359947993
			34.7092336489704	-23.3182283679304
			34.6947412758393	-23.3182283679304
			34.6802489027082	-23.3327207410615
			34.6802489027082	-23.3472131141926
			34.6657565295771	-23.3472131141926
			34.651264156446	-23.3617054873237
			34.6367717833149	-23.3761978604548
			34.6222794101838	-23.3761978604548
			34.6077870370527	-23.3906902335859
			34.5932946639216	-23.405182606717
			34.5788022907905	-23.405182606717
			34.5643099176595	-23.405182606717
			34.5498175445284	-23.4196749798481
			34.5353251713973	-23.4196749798481
			34.5208327982662	-23.4341673529792
			34.5063404251351	-23.4341673529792
			34.491848052004	-23.4341673529792
			34.4773556788729	-23.4486597261103
			34.4628633057418	-23.4486597261103
			34.4483709326107	-23.4486597261103
			34.4338785594796	-23.4631520992414
			34.4193861863485	-23.4631520992414
			34.4048938132174	-23.4631520992414
			34.3904014400863	-23.4631520992414
			34.3759090669552	-23.4631520992414
			34.3614166938241	-23.4631520992414
			34.346924320693	-23.4631520992414
			34.332431947562	-23.4776444723725
			34.3179395744309	-23.4776444723725
			34.3034472012998	-23.4776444723725
			34.2889548281687	-23.4776444723725
			34.2744624550376	-23.4776444723725
			34.2599700819065	-23.4776444723725
			34.2454777087754	-23.4776444723725
			34.2309853356443	-23.4776444723725
			34.2164929625132	-23.4776444723725
			34.2020005893821	-23.4776444723725
			34.187508216251	-23.4776444723725
			34.1730158431199	-23.4776444723725
			34.1585234699888	-23.4776444723725
			34.1440310968577	-23.4776444723725
			34.1295387237266	-23.4631520992414
			34.1150463505955	-23.4631520992414
			34.1005539774644	-23.4631520992414
			34.0860616043333	-23.4486597261103
			34.0715692312023	-23.4486597261103
			34.0570768580712	-23.4486597261103
			34.0425844849401	-23.4486597261103
			34.028092111809	-23.4341673529792
			34.0135997386779	-23.4341673529792
			33.9991073655468	-23.4341673529792
			33.9846149924157	-23.4196749798481
			33.9701226192846	-23.4196749798481
			33.9556302461535	-23.4196749798481
			33.9411378730224	-23.405182606717
			33.9266454998913	-23.3906902335859
			33.9121531267602	-23.3761978604548
			33.8976607536291	-23.3761978604548
			33.883168380498	-23.3617054873237
			33.8686760073669	-23.3472131141926
			33.8541836342358	-23.3327207410615
			33.8396912611047	-23.3182283679304
			33.8251988879737	-23.3037359947993
			33.8107065148426	-23.2892436216682
			33.7962141417115	-23.2892436216682
			33.7962141417115	-23.2747512485371
			33.7817217685804	-23.260258875406
			33.7672293954493	-23.260258875406
			33.7672293954493	-23.245766502275
			33.7527370223182	-23.2312741291439
			33.7382446491871	-23.2167817560128
			33.723752276056	-23.2022893828817
			33.7092599029249	-23.1877970097506
			33.7092599029249	-23.1733046366195
			33.6947675297938	-23.1588122634884
			33.6947675297938	-23.1443198903573
			33.6802751566627	-23.1443198903573
			33.6657827835316	-23.1298275172262
			33.6657827835316	-23.1153351440951
			33.6512904104005	-23.100842770964
			33.6367980372694	-23.0863503978329
			33.6367980372694	-23.0718580247018
			33.6223056641383	-23.0573656515707
			33.6223056641383	-23.0428732784396
			33.6078132910072	-23.0283809053085
			33.6078132910072	-23.0138885321774
			33.6078132910072	-22.9993961590464
			33.6078132910072	-22.9849037859153
			33.6078132910072	-22.9704114127842
			33.6078132910072	-22.9559190396531
			33.6078132910072	-22.941426666522
			33.6078132910072	-22.9269342933909
			33.6078132910072	-22.9124419202598
			33.6078132910072	-22.8979495471287
			33.6078132910072	-22.8834571739976
			33.6078132910072	-22.8689648008665
			33.6078132910072	-22.8544724277354
			33.6078132910072	-22.8399800546043
			33.6078132910072	-22.8254876814732
			33.6078132910072	-22.8109953083421
			33.6078132910072	-22.796502935211
			33.6078132910072	-22.7820105620799
			33.6078132910072	-22.7675181889488
			33.6078132910072	-22.7530258158178
			33.6078132910072	-22.7385334426867
			33.6078132910072	-22.7240410695556
			33.6078132910072	-22.7095486964245
			33.6078132910072	-22.6950563232934
			33.6078132910072	-22.6805639501623
			33.6078132910072	-22.6660715770312
			33.6078132910072	-22.6515792039001
			33.6078132910072	-22.637086830769
			33.6078132910072	-22.6225944576379
			33.6078132910072	-22.6081020845068
			33.6078132910072	-22.5936097113757
			33.6078132910072	-22.5791173382446
			33.6078132910072	-22.5646249651135
			33.6223056641383	-22.5501325919824
			33.6223056641383	-22.5356402188513
			33.6223056641383	-22.5211478457202
			33.6223056641383	-22.5066554725892
			33.6223056641383	-22.4921630994581
			33.6223056641383	-22.477670726327
			33.6223056641383	-22.4631783531959
			33.6223056641383	-22.4486859800648
			33.6223056641383	-22.4341936069337
			33.6223056641383	-22.4197012338026
			33.6223056641383	-22.4052088606715
			33.6223056641383	-22.3907164875404
			33.6223056641383	-22.3762241144093
			33.6223056641383	-22.3617317412782
			33.6367980372694	-22.3472393681471
			33.6367980372694	-22.332746995016
			33.6367980372694	-22.3182546218849
			33.6367980372694	-22.3037622487538
			33.6367980372694	-22.2892698756227
			33.6367980372694	-22.2747775024916
			33.6367980372694	-22.2602851293606
		</Outline1>
		<Outline2 type=matrix rownames=FALSE colnames=FALSE nrow=141 ncol=2 as.numeric=TRUE >
			33.6367980372694	-22.2602851293606
			33.6367980372694	-22.2457927562295
			33.6367980372694	-22.2313003830984
			33.6367980372694	-22.2168080099673
			33.6367980372694	-22.2023156368362
			33.6367980372694	-22.1878232637051
			33.6367980372694	-22.173330890574
			33.6367980372694	-22.1588385174429
			33.6367980372694	-22.1443461443118
			33.6367980372694	-22.1298537711807
			33.6367980372694	-22.1153613980496
			33.6367980372694	-22.1008690249185
			33.6367980372694	-22.0863766517874
			33.6367980372694	-22.0718842786563
			33.6367980372694	-22.0573919055252
			33.6367980372694	-22.0428995323941
			33.6367980372694	-22.028407159263
			33.6367980372694	-22.013914786132
			33.6367980372694	-21.9994224130009
			33.6367980372694	-21.9849300398698
			33.6367980372694	-21.9704376667387
			33.6367980372694	-21.9559452936076
			33.6367980372694	-21.9414529204765
			33.6367980372694	-21.9269605473454
			33.6367980372694	-21.9124681742143
			33.6367980372694	-21.8979758010832
			33.6367980372694	-21.8834834279521
			33.6367980372694	-21.868991054821
			33.6367980372694	-21.8544986816899
			33.6367980372694	-21.8400063085588
			33.6367980372694	-21.8255139354277
			33.6367980372694	-21.8110215622966
			33.6367980372694	-21.7965291891655
			33.6367980372694	-21.7820368160344
			33.6367980372694	-21.7675444429034
			33.6367980372694	-21.7530520697723
			33.6367980372694	-21.7385596966412
			33.6367980372694	-21.7240673235101
			33.6367980372694	-21.709574950379
			33.6367980372694	-21.6950825772479
			33.6367980372694	-21.6805902041168
			33.6367980372694	-21.6660978309857
			33.6367980372694	-21.6516054578546
			33.6367980372694	-21.6371130847235
			33.6367980372694	-21.6226207115924
			33.6367980372694	-21.6081283384613
			33.6367980372694	-21.5936359653302
			33.6367980372694	-21.5791435921991
			33.6367980372694	-21.564651219068
			33.6367980372694	-21.5501588459369
			33.6367980372694	-21.5356664728058
			33.6367980372694	-21.5211740996748
			33.6367980372694	-21.5066817265437
			33.6367980372694	-21.4921893534126
			33.6367980372694	-21.4776969802815
			33.6367980372694	-21.4632046071504
			33.6367980372694	-21.4487122340193
			33.6367980372694	-21.4342198608882
			33.6367980372694	-21.4197274877571
			33.6367980372694	-21.405235114626
			33.6367980372694	-21.3907427414949
			33.6367980372694	-21.3762503683638
			33.6367980372694	-21.3617579952327
			33.6367980372694	-21.3472656221016
			33.6367980372694	-21.3327732489705
			33.6367980372694	-21.3182808758394
			33.6367980372694	-21.3037885027083
			33.6367980372694	-21.2892961295772
			33.6367980372694	-21.2748037564462
			33.6367980372694	-21.2603113833151
			33.6367980372694	-21.245819010184
			33.6367980372694	-21.2313266370529
			33.6367980372694	-21.2168342639218
			33.6367980372694	-21.2023418907907
			33.6367980372694	-21.1878495176596
			33.6367980372694	-21.1733571445285
			33.6512904104005	-21.1733571445285
			33.6512904104005	-21.1588647713974
			33.6512904104005	-21.1443723982663
			33.6512904104005	-21.1298800251352
			33.6512904104005	-21.1153876520041
			33.6512904104005	-21.100895278873
			33.6512904104005	-21.0864029057419
			33.6512904104005	-21.0719105326108
			33.6512904104005	-21.0574181594797
			33.6657827835316	-21.0429257863486
			33.6657827835316	-21.0284334132176
			33.6657827835316	-21.0139410400865
			33.6657827835316	-20.9994486669554
			33.6802751566627	-20.9849562938243
			33.6802751566627	-20.9704639206932
			33.6947675297938	-20.9704639206932
			33.7092599029249	-20.9559715475621
			33.723752276056	-20.941479174431
			33.7382446491871	-20.9269868012999
			33.7527370223182	-20.9124944281688
			33.7672293954493	-20.9124944281688
			33.7817217685804	-20.8980020550377
			33.7962141417115	-20.8835096819066
			33.8107065148426	-20.8835096819066
			33.8251988879737	-20.8690173087755
			33.8396912611047	-20.8690173087755
			33.8541836342358	-20.8545249356444
			33.8686760073669	-20.8545249356444
			33.883168380498	-20.8545249356444
			33.8976607536291	-20.8400325625133
			33.9121531267602	-20.8400325625133
			33.9266454998913	-20.8400325625133
			33.9411378730224	-20.8400325625133
			33.9556302461535	-20.8400325625133
			33.9701226192846	-20.8255401893822
			33.9846149924157	-20.8255401893822
			33.9991073655468	-20.8255401893822
			34.0135997386779	-20.8255401893822
			34.028092111809	-20.8255401893822
			34.0425844849401	-20.8110478162511
			34.0570768580712	-20.8110478162511
			34.0715692312023	-20.8110478162511
			34.0860616043333	-20.8110478162511
			34.1005539774644	-20.8110478162511
			34.1150463505955	-20.8110478162511
			34.1295387237266	-20.8110478162511
			34.1440310968577	-20.8110478162511
			34.1585234699888	-20.79655544312
			34.1730158431199	-20.79655544312
			34.187508216251	-20.79655544312
			34.2020005893821	-20.79655544312
			34.2164929625132	-20.79655544312
			34.2309853356443	-20.79655544312
			34.2454777087754	-20.79655544312
			34.2599700819065	-20.79655544312
			34.2744624550376	-20.79655544312
			34.2889548281687	-20.79655544312
			34.3034472012998	-20.79655544312
			34.3179395744309	-20.79655544312
			34.332431947562	-20.782063069989
			34.346924320693	-20.782063069989
			34.3614166938241	-20.7675706968579
			34.3759090669552	-20.7675706968579
			34.3904014400863	-20.7530783237268
			34.4048938132174	-20.7385859505957
		</Outline2>
		<Outline3 type=matrix rownames=FALSE colnames=FALSE nrow=137 ncol=2 as.numeric=TRUE >
			34.4048938132174	-20.7385859505957
			34.4193861863485	-20.7385859505957
			34.4338785594796	-20.7240935774646
			34.4483709326107	-20.7240935774646
			34.4628633057418	-20.7096012043335
			34.4773556788729	-20.7096012043335
			34.491848052004	-20.6951088312024
			34.5063404251351	-20.6951088312024
			34.5208327982662	-20.6951088312024
			34.5353251713973	-20.6806164580713
			34.5498175445284	-20.6806164580713
			34.5643099176595	-20.6806164580713
			34.5788022907905	-20.6661240849402
			34.5932946639216	-20.6661240849402
			34.6077870370527	-20.6661240849402
			34.6222794101838	-20.6661240849402
			34.6367717833149	-20.6661240849402
			34.651264156446	-20.6661240849402
			34.6657565295771	-20.6661240849402
			34.6802489027082	-20.6661240849402
			34.6947412758393	-20.6661240849402
			34.7092336489704	-20.6661240849402
			34.7237260221015	-20.6661240849402
			34.7382183952326	-20.6661240849402
			34.7527107683637	-20.6661240849402
			34.7672031414948	-20.6661240849402
			34.7816955146259	-20.6661240849402
			34.796187887757	-20.6661240849402
			34.8106802608881	-20.6661240849402
			34.8251726340191	-20.6661240849402
			34.8396650071502	-20.6661240849402
			34.8541573802813	-20.6661240849402
			34.8686497534124	-20.6516317118091
			34.8831421265435	-20.6516317118091
			34.8976344996746	-20.6516317118091
			34.9121268728057	-20.637139338678
			34.9266192459368	-20.637139338678
			34.9411116190679	-20.6226469655469
			34.955603992199	-20.6226469655469
			34.9700963653301	-20.6226469655469
			34.9845887384612	-20.6081545924158
			34.9990811115923	-20.6081545924158
			35.0135734847234	-20.6081545924158
			35.0280658578545	-20.6081545924158
			35.0425582309856	-20.5936622192847
			35.0570506041167	-20.5936622192847
			35.0715429772477	-20.5936622192847
			35.0860353503788	-20.5936622192847
			35.1005277235099	-20.5936622192847
			35.115020096641	-20.5791698461536
			35.1295124697721	-20.5791698461536
			35.1440048429032	-20.5791698461536
			35.1584972160343	-20.5791698461536
			35.1729895891654	-20.5791698461536
			35.1874819622965	-20.5791698461536
			35.2019743354276	-20.5791698461536
			35.2164667085587	-20.5791698461536
			35.2309590816898	-20.5791698461536
			35.2454514548209	-20.5791698461536
			35.259943827952	-20.5791698461536
			35.2744362010831	-20.5936622192847
			35.2889285742142	-20.5936622192847
			35.3034209473453	-20.5936622192847
			35.3179133204764	-20.5936622192847
			35.3324056936074	-20.5936622192847
			35.3324056936074	-20.6081545924158
			35.3468980667385	-20.6081545924158
			35.3613904398696	-20.6081545924158
			35.3758828130007	-20.6081545924158
			35.3758828130007	-20.6226469655469
			35.3903751861318	-20.6226469655469
			35.4048675592629	-20.637139338678
			35.419359932394	-20.637139338678
			35.4338523055251	-20.6516317118091
			35.4483446786562	-20.6661240849402
			35.4628370517873	-20.6661240849402
			35.4773294249184	-20.6806164580713
			35.4918217980495	-20.6806164580713
			35.4918217980495	-20.6951088312024
			35.5063141711806	-20.6951088312024
			35.5208065443117	-20.7096012043335
			35.5352989174428	-20.7096012043335
			35.5497912905739	-20.7240935774646
			35.5642836637049	-20.7385859505957
			35.578776036836	-20.7530783237268
			35.5932684099671	-20.7675706968579
			35.6077607830982	-20.782063069989
			35.6222531562293	-20.79655544312
			35.6367455293604	-20.8110478162511
			35.6367455293604	-20.8255401893822
			35.6512379024915	-20.8400325625133
			35.6512379024915	-20.8545249356444
			35.6657302756226	-20.8690173087755
			35.6657302756226	-20.8835096819066
			35.6802226487537	-20.8980020550377
			35.6802226487537	-20.9124944281688
			35.6802226487537	-20.9269868012999
			35.6947150218848	-20.941479174431
			35.6947150218848	-20.9559715475621
			35.7092073950159	-20.9704639206932
			35.723699768147	-20.9849562938243
			35.7381921412781	-20.9994486669554
			35.7526845144092	-21.0139410400865
			35.7526845144092	-21.0284334132176
			35.7671768875403	-21.0429257863486
			35.7816692606714	-21.0429257863486
			35.7816692606714	-21.0574181594797
			35.7961616338025	-21.0719105326108
			35.8106540069335	-21.0864029057419
			35.8106540069335	-21.100895278873
			35.8251463800646	-21.100895278873
			35.8251463800646	-21.1153876520041
			35.8396387531957	-21.1298800251352
			35.8396387531957	-21.1443723982663
			35.8396387531957	-21.1588647713974
			35.8541311263268	-21.1733571445285
			35.8541311263268	-21.1878495176596
			35.8541311263268	-21.2023418907907
			35.8686234994579	-21.2023418907907
			35.8686234994579	-21.2168342639218
			35.8686234994579	-21.2313266370529
			35.883115872589	-21.245819010184
			35.883115872589	-21.2603113833151
			35.883115872589	-21.2748037564462
			35.8976082457201	-21.2892961295772
			35.8976082457201	-21.3037885027083
			35.8976082457201	-21.3182808758394
			35.9121006188512	-21.3327732489705
			35.9121006188512	-21.3472656221016
			35.9121006188512	-21.3617579952327
			35.9265929919823	-21.3762503683638
			35.9265929919823	-21.3907427414949
			35.9265929919823	-21.405235114626
			35.9265929919823	-21.4197274877571
			35.9410853651134	-21.4342198608882
			35.9410853651134	-21.4487122340193
			35.9410853651134	-21.4632046071504
		</Outline3>
		<Outline4 type=matrix rownames=FALSE colnames=FALSE nrow=127 ncol=2 as.numeric=TRUE >
			35.9410853651134	-21.4632046071504
			35.9410853651134	-21.4776969802815
			35.9555777382445	-21.4921893534126
			35.9555777382445	-21.5066817265437
			35.9555777382445	-21.5211740996748
			35.9700701113756	-21.5356664728058
			35.9700701113756	-21.5501588459369
			35.9845624845067	-21.564651219068
			35.9845624845067	-21.5791435921991
			35.9845624845067	-21.5936359653302
			35.9990548576378	-21.6081283384613
			35.9990548576378	-21.6226207115924
			35.9990548576378	-21.6371130847235
			36.0135472307689	-21.6371130847235
			36.0135472307689	-21.6516054578546
			36.0135472307689	-21.6660978309857
			36.0280396039	-21.6805902041168
			36.0280396039	-21.6950825772479
			36.0280396039	-21.709574950379
			36.0280396039	-21.7240673235101
			36.0280396039	-21.7385596966412
			36.0280396039	-21.7530520697723
			36.0425319770311	-21.7675444429034
			36.0425319770311	-21.7820368160344
			36.0425319770311	-21.7965291891655
			36.0425319770311	-21.8110215622966
			36.0425319770311	-21.8255139354277
			36.0425319770311	-21.8400063085588
			36.0425319770311	-21.8544986816899
			36.0425319770311	-21.868991054821
			36.0425319770311	-21.8834834279521
			36.0425319770311	-21.8979758010832
			36.0425319770311	-21.9124681742143
			36.0425319770311	-21.9269605473454
			36.0425319770311	-21.9414529204765
			36.0425319770311	-21.9559452936076
			36.0425319770311	-21.9704376667387
			36.0425319770311	-21.9849300398698
			36.0425319770311	-21.9994224130009
			36.0425319770311	-22.013914786132
			36.0425319770311	-22.028407159263
			36.0425319770311	-22.0428995323941
			36.0425319770311	-22.0573919055252
			36.0425319770311	-22.0718842786563
			36.0280396039	-22.0863766517874
			36.0280396039	-22.1008690249185
			36.0280396039	-22.1153613980496
			36.0280396039	-22.1298537711807
			36.0280396039	-22.1443461443118
			36.0280396039	-22.1588385174429
			36.0280396039	-22.173330890574
			36.0135472307689	-22.1878232637051
			36.0135472307689	-22.2023156368362
			36.0135472307689	-22.2168080099673
			35.9990548576378	-22.2313003830984
			35.9990548576378	-22.2457927562295
			35.9845624845067	-22.2602851293606
			35.9845624845067	-22.2747775024916
			35.9700701113756	-22.2892698756227
			35.9700701113756	-22.3037622487538
			35.9555777382445	-22.3182546218849
			35.9555777382445	-22.332746995016
			35.9410853651134	-22.3472393681471
			35.9410853651134	-22.3617317412782
			35.9265929919823	-22.3762241144093
			35.9121006188512	-22.3907164875404
			35.9121006188512	-22.4052088606715
			35.8976082457201	-22.4197012338026
			35.8976082457201	-22.4341936069337
			35.883115872589	-22.4341936069337
			35.883115872589	-22.4486859800648
			35.8686234994579	-22.4631783531959
			35.8541311263268	-22.477670726327
			35.8396387531957	-22.4921630994581
			35.8396387531957	-22.5066554725892
			35.8251463800646	-22.5211478457202
			35.8106540069335	-22.5211478457202
			35.8106540069335	-22.5356402188513
			35.7961616338025	-22.5501325919824
			35.7816692606714	-22.5646249651135
			35.7816692606714	-22.5791173382446
			35.7671768875403	-22.5791173382446
			35.7526845144092	-22.5936097113757
			35.7526845144092	-22.6081020845068
			35.7381921412781	-22.6225944576379
			35.723699768147	-22.6225944576379
			35.723699768147	-22.637086830769
			35.7092073950159	-22.6515792039001
			35.6947150218848	-22.6660715770312
			35.6802226487537	-22.6805639501623
			35.6657302756226	-22.6805639501623
			35.6512379024915	-22.6950563232934
			35.6367455293604	-22.7095486964245
			35.6222531562293	-22.7095486964245
			35.6077607830982	-22.7240410695556
			35.5932684099671	-22.7385334426867
			35.578776036836	-22.7530258158178
			35.5642836637049	-22.7530258158178
			35.5497912905739	-22.7675181889488
			35.5352989174428	-22.7675181889488
			35.5208065443117	-22.7820105620799
			35.5063141711806	-22.7820105620799
			35.4918217980495	-22.796502935211
			35.4773294249184	-22.796502935211
			35.4628370517873	-22.8109953083421
			35.4483446786562	-22.8109953083421
			35.4338523055251	-22.8254876814732
			35.419359932394	-22.8254876814732
			35.4048675592629	-22.8399800546043
			35.3903751861318	-22.8399800546043
			35.3903751861318	-22.8544724277354
			35.3758828130007	-22.8544724277354
			35.3613904398696	-22.8544724277354
			35.3468980667385	-22.8689648008665
			35.3324056936074	-22.8689648008665
			35.3179133204764	-22.8689648008665
			35.3034209473453	-22.8834571739976
			35.2889285742142	-22.8834571739976
			35.2744362010831	-22.8979495471287
			35.259943827952	-22.8979495471287
			35.2454514548209	-22.8979495471287
			35.2309590816898	-22.9124419202598
			35.2164667085587	-22.9124419202598
			35.2019743354276	-22.9269342933909
			35.1874819622965	-22.9269342933909
			35.1729895891654	-22.941426666522
			35.1584972160343	-22.941426666522
		</Outline4>
	</curves.scaled>
	<ruler.points type=matrix rownames=TRUE colnames=FALSE nrow=2 ncol=2 as.numeric=TRUE >
		Ruler point 1	2821	2537
		Ruler point 2	2131	2532
	</ruler.points>
</shapes>

