<shapes type=list>
	<ruler.pixel type=vector names=FALSE length=1 as.numeric=TRUE >685.035765489657</ruler.pixel>
	<ruler.interval type=vector names=FALSE length=1 as.numeric=TRUE >10</ruler.interval>
	<scaling.units type=vector names=FALSE length=1 as.numeric=FALSE >mm</scaling.units>
	<scaling type=vector names=FALSE length=1 as.numeric=TRUE >0.0146626935498404</scaling>
	<landmarks.pixel type=matrix rownames=TRUE colnames=FALSE nrow=4 ncol=2 as.numeric=TRUE >
		Labial	2438	1815
		Posterior	2329	1783
		Lingual	2366	1673
		Anterior	2481	1704
	</landmarks.pixel>
	<landmarks.scaled type=matrix rownames=TRUE colnames=FALSE nrow=4 ncol=2 as.numeric=TRUE >
		Labial	35.7476468745108	-26.6127887929603
		Posterior	34.1494132775782	-26.1435825993654
		Lingual	34.6919329389223	-24.5306863088829
		Anterior	36.3781426971539	-24.985229808928
	</landmarks.scaled>
	<curves.control type=list>
		<Outline1 type=matrix rownames=FALSE colnames=FALSE nrow=17 ncol=2 as.numeric=TRUE >
			2438	1815
			2432	1821
			2424	1828
			2417	1834
			2411	1839
			2405	1843
			2399	1845
			2390	1848
			2380	1848
			2370	1846
			2361	1843
			2353	1838
			2346	1829
			2341	1821
			2337	1812
			2332	1801
			2329	1783
		</Outline1>
		<Outline2 type=matrix rownames=FALSE colnames=FALSE nrow=13 ncol=2 as.numeric=TRUE >
			2329	1783
			2326	1767
			2324	1755
			2323	1745
			2324	1731
			2327	1719
			2331	1708
			2336	1697
			2341	1690
			2347	1683
			2354	1679
			2360	1675
			2366	1673
		</Outline2>
		<Outline3 type=matrix rownames=FALSE colnames=FALSE nrow=15 ncol=2 as.numeric=TRUE >
			2366	1673
			2376	1671
			2388	1670
			2398	1669
			2407	1667
			2416	1665
			2425	1665
			2433	1665
			2443	1666
			2451	1669
			2458	1673
			2464	1678
			2470	1684
			2476	1693
			2481	1704
		</Outline3>
		<Outline4 type=matrix rownames=FALSE colnames=FALSE nrow=15 ncol=2 as.numeric=TRUE >
			2481	1704
			2485	1713
			2487	1723
			2488	1733
			2488	1741
			2487	1750
			2487	1757
			2486	1767
			2481	1777
			2475	1784
			2469	1789
			2461	1794
			2453	1799
			2446	1805
			2438	1815
		</Outline4>
	</curves.control>
	<curves.pixel type=list>
		<Outline1 type=matrix rownames=FALSE colnames=FALSE nrow=149 ncol=2 as.numeric=TRUE >
			2438	1815
			2437	1816
			2436	1817
			2435	1818
			2434	1819
			2433	1820
			2432	1821
			2431	1822
			2430	1822
			2429	1823
			2428	1824
			2427	1825
			2427	1826
			2426	1827
			2425	1827
			2424	1828
			2423	1829
			2422	1830
			2421	1830
			2420	1831
			2420	1832
			2419	1832
			2418	1833
			2417	1834
			2416	1834
			2416	1835
			2415	1836
			2414	1836
			2413	1837
			2413	1838
			2412	1838
			2411	1839
			2410	1839
			2410	1840
			2409	1840
			2408	1841
			2407	1842
			2406	1842
			2405	1842
			2404	1843
			2403	1843
			2402	1844
			2401	1844
			2400	1845
			2399	1845
			2398	1845
			2397	1846
			2396	1846
			2395	1846
			2394	1846
			2393	1847
			2392	1847
			2391	1847
			2390	1847
			2389	1847
			2388	1847
			2387	1848
			2386	1848
			2385	1848
			2384	1848
			2383	1848
			2382	1848
			2381	1848
			2380	1848
			2379	1848
			2378	1848
			2377	1847
			2376	1847
			2375	1847
			2374	1847
			2373	1846
			2372	1846
			2371	1846
			2370	1846
			2369	1845
			2368	1845
			2367	1845
			2366	1845
			2365	1844
			2364	1844
			2363	1844
			2362	1843
			2361	1843
			2360	1843
			2360	1842
			2359	1841
			2358	1841
			2357	1840
			2356	1840
			2355	1839
			2355	1838
			2354	1838
			2353	1837
			2352	1836
			2352	1835
			2351	1835
			2350	1834
			2349	1833
			2349	1832
			2348	1831
			2347	1830
			2346	1829
			2346	1828
			2345	1828
			2345	1827
			2344	1826
			2344	1825
			2343	1824
			2343	1823
			2342	1822
			2341	1821
			2341	1820
			2340	1819
			2340	1818
			2339	1817
			2339	1816
			2338	1815
			2338	1814
			2337	1813
			2337	1812
			2337	1811
			2336	1810
			2336	1809
			2335	1808
			2335	1807
			2335	1806
			2334	1805
			2334	1804
			2334	1803
			2333	1802
			2333	1801
			2333	1800
			2332	1799
			2332	1798
			2332	1797
			2332	1796
			2331	1795
			2331	1794
			2331	1793
			2331	1792
			2331	1791
			2330	1790
			2330	1789
			2330	1788
			2330	1787
			2329	1786
			2329	1785
			2329	1784
			2329	1783
		</Outline1>
		<Outline2 type=matrix rownames=FALSE colnames=FALSE nrow=122 ncol=2 as.numeric=TRUE >
			2329	1783
			2329	1782
			2329	1781
			2328	1780
			2328	1779
			2328	1778
			2328	1777
			2328	1776
			2328	1775
			2327	1775
			2327	1774
			2327	1773
			2327	1772
			2327	1771
			2327	1770
			2326	1769
			2326	1768
			2326	1767
			2326	1766
			2326	1765
			2326	1764
			2325	1763
			2325	1762
			2325	1761
			2325	1760
			2325	1759
			2324	1758
			2324	1757
			2324	1756
			2324	1755
			2324	1754
			2324	1753
			2324	1752
			2324	1751
			2324	1750
			2324	1749
			2324	1748
			2324	1747
			2324	1746
			2324	1745
			2324	1744
			2324	1743
			2324	1742
			2324	1741
			2324	1740
			2324	1739
			2324	1738
			2324	1737
			2324	1736
			2324	1735
			2324	1734
			2324	1733
			2324	1732
			2324	1731
			2324	1730
			2325	1729
			2325	1728
			2325	1727
			2325	1726
			2326	1725
			2326	1724
			2326	1723
			2327	1722
			2327	1721
			2327	1720
			2327	1719
			2328	1718
			2328	1717
			2328	1716
			2329	1715
			2329	1714
			2329	1713
			2330	1712
			2330	1711
			2330	1710
			2331	1709
			2331	1708
			2332	1707
			2332	1706
			2332	1705
			2333	1704
			2333	1703
			2334	1702
			2335	1701
			2335	1700
			2336	1699
			2336	1698
			2337	1697
			2337	1696
			2338	1695
			2338	1694
			2339	1693
			2340	1692
			2340	1691
			2341	1690
			2342	1689
			2343	1688
			2343	1687
			2344	1687
			2345	1686
			2346	1685
			2347	1684
			2348	1683
			2349	1682
			2350	1681
			2351	1681
			2352	1680
			2353	1679
			2354	1679
			2355	1678
			2356	1678
			2357	1677
			2358	1677
			2359	1676
			2360	1676
			2361	1675
			2362	1675
			2362	1674
			2363	1674
			2364	1674
			2365	1673
			2366	1673
		</Outline2>
		<Outline3 type=matrix rownames=FALSE colnames=FALSE nrow=128 ncol=2 as.numeric=TRUE >
			2366	1673
			2367	1673
			2368	1673
			2369	1672
			2370	1672
			2371	1672
			2372	1672
			2373	1672
			2374	1672
			2375	1672
			2375	1671
			2376	1671
			2377	1671
			2378	1671
			2379	1671
			2380	1671
			2381	1671
			2382	1671
			2383	1670
			2384	1670
			2385	1670
			2386	1670
			2387	1670
			2388	1670
			2389	1670
			2390	1670
			2391	1670
			2392	1670
			2393	1669
			2394	1669
			2395	1669
			2396	1669
			2397	1669
			2398	1669
			2399	1668
			2400	1668
			2401	1668
			2402	1668
			2403	1668
			2404	1668
			2405	1667
			2406	1667
			2407	1667
			2408	1667
			2409	1667
			2410	1666
			2411	1666
			2412	1666
			2413	1666
			2414	1666
			2415	1666
			2416	1665
			2417	1665
			2418	1665
			2419	1665
			2420	1665
			2421	1665
			2422	1665
			2423	1665
			2424	1665
			2425	1665
			2426	1665
			2427	1665
			2428	1665
			2429	1665
			2430	1665
			2431	1665
			2432	1665
			2433	1665
			2434	1665
			2435	1665
			2436	1665
			2437	1665
			2438	1666
			2439	1666
			2440	1666
			2441	1666
			2442	1666
			2443	1666
			2444	1666
			2445	1667
			2446	1667
			2447	1668
			2448	1668
			2449	1669
			2450	1669
			2451	1669
			2452	1670
			2453	1670
			2454	1671
			2455	1671
			2456	1672
			2457	1673
			2458	1673
			2459	1674
			2460	1674
			2461	1675
			2461	1676
			2462	1677
			2463	1677
			2464	1678
			2465	1679
			2465	1680
			2466	1680
			2467	1681
			2468	1682
			2469	1683
			2470	1684
			2471	1685
			2471	1686
			2472	1687
			2473	1688
			2473	1689
			2474	1690
			2474	1691
			2475	1692
			2475	1693
			2476	1694
			2476	1695
			2477	1696
			2477	1697
			2478	1698
			2478	1699
			2479	1700
			2479	1701
			2480	1702
			2480	1703
			2481	1704
		</Outline3>
		<Outline4 type=matrix rownames=FALSE colnames=FALSE nrow=127 ncol=2 as.numeric=TRUE >
			2481	1704
			2481	1705
			2482	1706
			2482	1707
			2483	1708
			2483	1709
			2483	1710
			2484	1711
			2484	1712
			2484	1713
			2485	1714
			2485	1715
			2485	1716
			2486	1717
			2486	1718
			2486	1719
			2486	1720
			2487	1721
			2487	1722
			2487	1723
			2487	1724
			2487	1725
			2487	1726
			2487	1727
			2487	1728
			2488	1729
			2488	1730
			2488	1731
			2488	1732
			2488	1733
			2488	1734
			2488	1735
			2488	1736
			2488	1737
			2488	1738
			2488	1739
			2488	1740
			2488	1741
			2488	1742
			2488	1743
			2488	1744
			2488	1745
			2487	1746
			2487	1747
			2487	1748
			2487	1749
			2487	1750
			2487	1751
			2487	1752
			2487	1753
			2487	1754
			2487	1755
			2487	1756
			2487	1757
			2487	1758
			2487	1759
			2487	1760
			2486	1761
			2486	1762
			2486	1763
			2486	1764
			2486	1765
			2485	1766
			2485	1767
			2485	1768
			2484	1769
			2484	1770
			2484	1771
			2483	1772
			2483	1773
			2482	1774
			2482	1775
			2482	1776
			2481	1776
			2481	1777
			2481	1778
			2480	1778
			2479	1779
			2478	1780
			2478	1781
			2477	1782
			2476	1782
			2475	1783
			2474	1784
			2474	1785
			2473	1786
			2472	1786
			2471	1787
			2470	1788
			2470	1789
			2469	1789
			2468	1790
			2467	1790
			2466	1791
			2465	1792
			2464	1792
			2463	1793
			2462	1793
			2462	1794
			2461	1794
			2460	1795
			2459	1795
			2458	1796
			2457	1797
			2456	1797
			2455	1798
			2454	1798
			2453	1799
			2452	1800
			2451	1800
			2451	1801
			2450	1802
			2449	1803
			2448	1804
			2447	1805
			2446	1805
			2445	1806
			2445	1807
			2444	1808
			2443	1809
			2442	1810
			2441	1811
			2440	1812
			2440	1813
			2439	1813
			2439	1814
			2438	1815
		</Outline4>
	</curves.pixel>
	<curves.scaled type=list>
		<Outline1 type=matrix rownames=FALSE colnames=FALSE nrow=149 ncol=2 as.numeric=TRUE >
			35.7476468745108	-26.6127887929603
			35.732984180961	-26.6274514865101
			35.7183214874111	-26.6421141800599
			35.7036587938613	-26.6567768736098
			35.6889961003114	-26.6714395671596
			35.6743334067616	-26.6861022607095
			35.6596707132118	-26.7007649542593
			35.6450080196619	-26.7154276478091
			35.6303453261121	-26.7154276478091
			35.6156826325622	-26.730090341359
			35.6010199390124	-26.7447530349088
			35.5863572454626	-26.7594157284587
			35.5863572454626	-26.7740784220085
			35.5716945519127	-26.7887411155583
			35.5570318583629	-26.7887411155583
			35.542369164813	-26.8034038091082
			35.5277064712632	-26.818066502658
			35.5130437777134	-26.8327291962079
			35.4983810841635	-26.8327291962079
			35.4837183906137	-26.8473918897577
			35.4837183906137	-26.8620545833075
			35.4690556970638	-26.8620545833075
			35.454393003514	-26.8767172768574
			35.4397303099642	-26.8913799704072
			35.4250676164143	-26.8913799704072
			35.4250676164143	-26.9060426639571
			35.4104049228645	-26.9207053575069
			35.3957422293146	-26.9207053575069
			35.3810795357648	-26.9353680510567
			35.3810795357648	-26.9500307446066
			35.366416842215	-26.9500307446066
			35.3517541486651	-26.9646934381564
			35.3370914551153	-26.9646934381564
			35.3370914551153	-26.9793561317063
			35.3224287615654	-26.9793561317063
			35.3077660680156	-26.9940188252561
			35.2931033744658	-27.0086815188059
			35.2784406809159	-27.0086815188059
			35.2637779873661	-27.0086815188059
			35.2491152938162	-27.0233442123558
			35.2344526002664	-27.0233442123558
			35.2197899067165	-27.0380069059056
			35.2051272131667	-27.0380069059056
			35.1904645196169	-27.0526695994555
			35.175801826067	-27.0526695994555
			35.1611391325172	-27.0526695994555
			35.1464764389673	-27.0673322930053
			35.1318137454175	-27.0673322930053
			35.1171510518677	-27.0673322930053
			35.1024883583178	-27.0673322930053
			35.087825664768	-27.0819949865551
			35.0731629712181	-27.0819949865551
			35.0585002776683	-27.0819949865551
			35.0438375841185	-27.0819949865551
			35.0291748905686	-27.0819949865551
			35.0145121970188	-27.0819949865551
			34.9998495034689	-27.096657680105
			34.9851868099191	-27.096657680105
			34.9705241163693	-27.096657680105
			34.9558614228194	-27.096657680105
			34.9411987292696	-27.096657680105
			34.9265360357197	-27.096657680105
			34.9118733421699	-27.096657680105
			34.8972106486201	-27.096657680105
			34.8825479550702	-27.096657680105
			34.8678852615204	-27.096657680105
			34.8532225679705	-27.0819949865551
			34.8385598744207	-27.0819949865551
			34.8238971808709	-27.0819949865551
			34.809234487321	-27.0819949865551
			34.7945717937712	-27.0673322930053
			34.7799091002213	-27.0673322930053
			34.7652464066715	-27.0673322930053
			34.7505837131217	-27.0673322930053
			34.7359210195718	-27.0526695994555
			34.721258326022	-27.0526695994555
			34.7065956324721	-27.0526695994555
			34.6919329389223	-27.0526695994555
			34.6772702453725	-27.0380069059056
			34.6626075518226	-27.0380069059056
			34.6479448582728	-27.0380069059056
			34.6332821647229	-27.0233442123558
			34.6186194711731	-27.0233442123558
			34.6039567776233	-27.0233442123558
			34.6039567776233	-27.0086815188059
			34.5892940840734	-26.9940188252561
			34.5746313905236	-26.9940188252561
			34.5599686969737	-26.9793561317063
			34.5453060034239	-26.9793561317063
			34.5306433098741	-26.9646934381564
			34.5306433098741	-26.9500307446066
			34.5159806163242	-26.9500307446066
			34.5013179227744	-26.9353680510567
			34.4866552292245	-26.9207053575069
			34.4866552292245	-26.9060426639571
			34.4719925356747	-26.9060426639571
			34.4573298421248	-26.8913799704072
			34.442667148575	-26.8767172768574
			34.442667148575	-26.8620545833075
			34.4280044550252	-26.8473918897577
			34.4133417614753	-26.8327291962079
			34.3986790679255	-26.818066502658
			34.3986790679255	-26.8034038091082
			34.3840163743756	-26.8034038091082
			34.3840163743756	-26.7887411155583
			34.3693536808258	-26.7740784220085
			34.3693536808258	-26.7594157284587
			34.354690987276	-26.7447530349088
			34.354690987276	-26.730090341359
			34.3400282937261	-26.7154276478091
			34.3253656001763	-26.7007649542593
			34.3253656001763	-26.6861022607095
			34.3107029066264	-26.6714395671596
			34.3107029066264	-26.6567768736098
			34.2960402130766	-26.6421141800599
			34.2960402130766	-26.6274514865101
			34.2813775195268	-26.6127887929603
			34.2813775195268	-26.5981260994104
			34.2667148259769	-26.5834634058606
			34.2667148259769	-26.5688007123107
			34.2667148259769	-26.5541380187609
			34.2520521324271	-26.5394753252111
			34.2520521324271	-26.5248126316612
			34.2373894388772	-26.5101499381114
			34.2373894388772	-26.4954872445615
			34.2373894388772	-26.4808245510117
			34.2227267453274	-26.4661618574619
			34.2227267453274	-26.451499163912
			34.2227267453274	-26.4368364703622
			34.2080640517776	-26.4221737768123
			34.2080640517776	-26.4075110832625
			34.2080640517776	-26.3928483897127
			34.1934013582277	-26.3781856961628
			34.1934013582277	-26.363523002613
			34.1934013582277	-26.3488603090631
			34.1934013582277	-26.3341976155133
			34.1787386646779	-26.3195349219634
			34.1787386646779	-26.3048722284136
			34.1787386646779	-26.2902095348638
			34.1787386646779	-26.2755468413139
			34.1787386646779	-26.2608841477641
			34.164075971128	-26.2462214542142
			34.164075971128	-26.2315587606644
			34.164075971128	-26.2168960671146
			34.164075971128	-26.2022333735647
			34.1494132775782	-26.1875706800149
			34.1494132775782	-26.172907986465
			34.1494132775782	-26.1582452929152
			34.1494132775782	-26.1435825993654
		</Outline1>
		<Outline2 type=matrix rownames=FALSE colnames=FALSE nrow=122 ncol=2 as.numeric=TRUE >
			34.1494132775782	-26.1435825993654
			34.1494132775782	-26.1289199058155
			34.1494132775782	-26.1142572122657
			34.1347505840284	-26.0995945187158
			34.1347505840284	-26.084931825166
			34.1347505840284	-26.0702691316162
			34.1347505840284	-26.0556064380663
			34.1347505840284	-26.0409437445165
			34.1347505840284	-26.0262810509666
			34.1200878904785	-26.0262810509666
			34.1200878904785	-26.0116183574168
			34.1200878904785	-25.996955663867
			34.1200878904785	-25.9822929703171
			34.1200878904785	-25.9676302767673
			34.1200878904785	-25.9529675832174
			34.1054251969287	-25.9383048896676
			34.1054251969287	-25.9236421961178
			34.1054251969287	-25.9089795025679
			34.1054251969287	-25.8943168090181
			34.1054251969287	-25.8796541154682
			34.1054251969287	-25.8649914219184
			34.0907625033788	-25.8503287283686
			34.0907625033788	-25.8356660348187
			34.0907625033788	-25.8210033412689
			34.0907625033788	-25.806340647719
			34.0907625033788	-25.7916779541692
			34.076099809829	-25.7770152606194
			34.076099809829	-25.7623525670695
			34.076099809829	-25.7476898735197
			34.076099809829	-25.7330271799698
			34.076099809829	-25.71836448642
			34.076099809829	-25.7037017928702
			34.076099809829	-25.6890390993203
			34.076099809829	-25.6743764057705
			34.076099809829	-25.6597137122206
			34.076099809829	-25.6450510186708
			34.076099809829	-25.630388325121
			34.076099809829	-25.6157256315711
			34.076099809829	-25.6010629380213
			34.076099809829	-25.5864002444714
			34.076099809829	-25.5717375509216
			34.076099809829	-25.5570748573717
			34.076099809829	-25.5424121638219
			34.076099809829	-25.5277494702721
			34.076099809829	-25.5130867767222
			34.076099809829	-25.4984240831724
			34.076099809829	-25.4837613896225
			34.076099809829	-25.4690986960727
			34.076099809829	-25.4544360025229
			34.076099809829	-25.439773308973
			34.076099809829	-25.4251106154232
			34.076099809829	-25.4104479218733
			34.076099809829	-25.3957852283235
			34.076099809829	-25.3811225347737
			34.076099809829	-25.3664598412238
			34.0907625033788	-25.351797147674
			34.0907625033788	-25.3371344541241
			34.0907625033788	-25.3224717605743
			34.0907625033788	-25.3078090670245
			34.1054251969287	-25.2931463734746
			34.1054251969287	-25.2784836799248
			34.1054251969287	-25.2638209863749
			34.1200878904785	-25.2491582928251
			34.1200878904785	-25.2344955992753
			34.1200878904785	-25.2198329057254
			34.1200878904785	-25.2051702121756
			34.1347505840284	-25.1905075186257
			34.1347505840284	-25.1758448250759
			34.1347505840284	-25.1611821315261
			34.1494132775782	-25.1465194379762
			34.1494132775782	-25.1318567444264
			34.1494132775782	-25.1171940508765
			34.164075971128	-25.1025313573267
			34.164075971128	-25.0878686637769
			34.164075971128	-25.073205970227
			34.1787386646779	-25.0585432766772
			34.1787386646779	-25.0438805831273
			34.1934013582277	-25.0292178895775
			34.1934013582277	-25.0145551960277
			34.1934013582277	-24.9998925024778
			34.2080640517776	-24.985229808928
			34.2080640517776	-24.9705671153781
			34.2227267453274	-24.9559044218283
			34.2373894388772	-24.9412417282785
			34.2373894388772	-24.9265790347286
			34.2520521324271	-24.9119163411788
			34.2520521324271	-24.8972536476289
			34.2667148259769	-24.8825909540791
			34.2667148259769	-24.8679282605293
			34.2813775195268	-24.8532655669794
			34.2813775195268	-24.8386028734296
			34.2960402130766	-24.8239401798797
			34.3107029066264	-24.8092774863299
			34.3107029066264	-24.7946147927801
			34.3253656001763	-24.7799520992302
			34.3400282937261	-24.7652894056804
			34.354690987276	-24.7506267121305
			34.354690987276	-24.7359640185807
			34.3693536808258	-24.7359640185807
			34.3840163743756	-24.7213013250309
			34.3986790679255	-24.706638631481
			34.4133417614753	-24.6919759379312
			34.4280044550252	-24.6773132443813
			34.442667148575	-24.6626505508315
			34.4573298421248	-24.6479878572816
			34.4719925356747	-24.6479878572816
			34.4866552292245	-24.6333251637318
			34.5013179227744	-24.618662470182
			34.5159806163242	-24.618662470182
			34.5306433098741	-24.6039997766321
			34.5453060034239	-24.6039997766321
			34.5599686969737	-24.5893370830823
			34.5746313905236	-24.5893370830823
			34.5892940840734	-24.5746743895324
			34.6039567776233	-24.5746743895324
			34.6186194711731	-24.5600116959826
			34.6332821647229	-24.5600116959826
			34.6332821647229	-24.5453490024328
			34.6479448582728	-24.5453490024328
			34.6626075518226	-24.5453490024328
			34.6772702453725	-24.5306863088829
			34.6919329389223	-24.5306863088829
		</Outline2>
		<Outline3 type=matrix rownames=FALSE colnames=FALSE nrow=128 ncol=2 as.numeric=TRUE >
			34.6919329389223	-24.5306863088829
			34.7065956324721	-24.5306863088829
			34.721258326022	-24.5306863088829
			34.7359210195718	-24.5160236153331
			34.7505837131217	-24.5160236153331
			34.7652464066715	-24.5160236153331
			34.7799091002213	-24.5160236153331
			34.7945717937712	-24.5160236153331
			34.809234487321	-24.5160236153331
			34.8238971808709	-24.5160236153331
			34.8238971808709	-24.5013609217832
			34.8385598744207	-24.5013609217832
			34.8532225679705	-24.5013609217832
			34.8678852615204	-24.5013609217832
			34.8825479550702	-24.5013609217832
			34.8972106486201	-24.5013609217832
			34.9118733421699	-24.5013609217832
			34.9265360357197	-24.5013609217832
			34.9411987292696	-24.4866982282334
			34.9558614228194	-24.4866982282334
			34.9705241163693	-24.4866982282334
			34.9851868099191	-24.4866982282334
			34.9998495034689	-24.4866982282334
			35.0145121970188	-24.4866982282334
			35.0291748905686	-24.4866982282334
			35.0438375841185	-24.4866982282334
			35.0585002776683	-24.4866982282334
			35.0731629712181	-24.4866982282334
			35.087825664768	-24.4720355346836
			35.1024883583178	-24.4720355346836
			35.1171510518677	-24.4720355346836
			35.1318137454175	-24.4720355346836
			35.1464764389673	-24.4720355346836
			35.1611391325172	-24.4720355346836
			35.175801826067	-24.4573728411337
			35.1904645196169	-24.4573728411337
			35.2051272131667	-24.4573728411337
			35.2197899067165	-24.4573728411337
			35.2344526002664	-24.4573728411337
			35.2491152938162	-24.4573728411337
			35.2637779873661	-24.4427101475839
			35.2784406809159	-24.4427101475839
			35.2931033744658	-24.4427101475839
			35.3077660680156	-24.4427101475839
			35.3224287615654	-24.4427101475839
			35.3370914551153	-24.428047454034
			35.3517541486651	-24.428047454034
			35.366416842215	-24.428047454034
			35.3810795357648	-24.428047454034
			35.3957422293146	-24.428047454034
			35.4104049228645	-24.428047454034
			35.4250676164143	-24.4133847604842
			35.4397303099642	-24.4133847604842
			35.454393003514	-24.4133847604842
			35.4690556970638	-24.4133847604842
			35.4837183906137	-24.4133847604842
			35.4983810841635	-24.4133847604842
			35.5130437777134	-24.4133847604842
			35.5277064712632	-24.4133847604842
			35.542369164813	-24.4133847604842
			35.5570318583629	-24.4133847604842
			35.5716945519127	-24.4133847604842
			35.5863572454626	-24.4133847604842
			35.6010199390124	-24.4133847604842
			35.6156826325622	-24.4133847604842
			35.6303453261121	-24.4133847604842
			35.6450080196619	-24.4133847604842
			35.6596707132118	-24.4133847604842
			35.6743334067616	-24.4133847604842
			35.6889961003114	-24.4133847604842
			35.7036587938613	-24.4133847604842
			35.7183214874111	-24.4133847604842
			35.732984180961	-24.4133847604842
			35.7476468745108	-24.428047454034
			35.7623095680606	-24.428047454034
			35.7769722616105	-24.428047454034
			35.7916349551603	-24.428047454034
			35.8062976487102	-24.428047454034
			35.82096034226	-24.428047454034
			35.8356230358098	-24.428047454034
			35.8502857293597	-24.4427101475839
			35.8649484229095	-24.4427101475839
			35.8796111164594	-24.4573728411337
			35.8942738100092	-24.4573728411337
			35.908936503559	-24.4720355346836
			35.9235991971089	-24.4720355346836
			35.9382618906587	-24.4720355346836
			35.9529245842086	-24.4866982282334
			35.9675872777584	-24.4866982282334
			35.9822499713082	-24.5013609217832
			35.9969126648581	-24.5013609217832
			36.0115753584079	-24.5160236153331
			36.0262380519578	-24.5306863088829
			36.0409007455076	-24.5306863088829
			36.0555634390575	-24.5453490024328
			36.0702261326073	-24.5453490024328
			36.0848888261571	-24.5600116959826
			36.0848888261571	-24.5746743895324
			36.099551519707	-24.5893370830823
			36.1142142132568	-24.5893370830823
			36.1288769068067	-24.6039997766321
			36.1435396003565	-24.618662470182
			36.1435396003565	-24.6333251637318
			36.1582022939063	-24.6333251637318
			36.1728649874562	-24.6479878572816
			36.187527681006	-24.6626505508315
			36.2021903745559	-24.6773132443813
			36.2168530681057	-24.6919759379312
			36.2315157616555	-24.706638631481
			36.2315157616555	-24.7213013250309
			36.2461784552054	-24.7359640185807
			36.2608411487552	-24.7506267121305
			36.2608411487552	-24.7652894056804
			36.2755038423051	-24.7799520992302
			36.2755038423051	-24.7946147927801
			36.2901665358549	-24.8092774863299
			36.2901665358549	-24.8239401798797
			36.3048292294047	-24.8386028734296
			36.3048292294047	-24.8532655669794
			36.3194919229546	-24.8679282605293
			36.3194919229546	-24.8825909540791
			36.3341546165044	-24.8972536476289
			36.3341546165044	-24.9119163411788
			36.3488173100543	-24.9265790347286
			36.3488173100543	-24.9412417282785
			36.3634800036041	-24.9559044218283
			36.3634800036041	-24.9705671153781
			36.3781426971539	-24.985229808928
		</Outline3>
		<Outline4 type=matrix rownames=FALSE colnames=FALSE nrow=127 ncol=2 as.numeric=TRUE >
			36.3781426971539	-24.985229808928
			36.3781426971539	-24.9998925024778
			36.3928053907038	-25.0145551960277
			36.3928053907038	-25.0292178895775
			36.4074680842536	-25.0438805831273
			36.4074680842536	-25.0585432766772
			36.4074680842536	-25.073205970227
			36.4221307778035	-25.0878686637769
			36.4221307778035	-25.1025313573267
			36.4221307778035	-25.1171940508765
			36.4367934713533	-25.1318567444264
			36.4367934713533	-25.1465194379762
			36.4367934713533	-25.1611821315261
			36.4514561649031	-25.1758448250759
			36.4514561649031	-25.1905075186257
			36.4514561649031	-25.2051702121756
			36.4514561649031	-25.2198329057254
			36.466118858453	-25.2344955992753
			36.466118858453	-25.2491582928251
			36.466118858453	-25.2638209863749
			36.466118858453	-25.2784836799248
			36.466118858453	-25.2931463734746
			36.466118858453	-25.3078090670245
			36.466118858453	-25.3224717605743
			36.466118858453	-25.3371344541241
			36.4807815520028	-25.351797147674
			36.4807815520028	-25.3664598412238
			36.4807815520028	-25.3811225347737
			36.4807815520028	-25.3957852283235
			36.4807815520028	-25.4104479218733
			36.4807815520028	-25.4251106154232
			36.4807815520028	-25.439773308973
			36.4807815520028	-25.4544360025229
			36.4807815520028	-25.4690986960727
			36.4807815520028	-25.4837613896225
			36.4807815520028	-25.4984240831724
			36.4807815520028	-25.5130867767222
			36.4807815520028	-25.5277494702721
			36.4807815520028	-25.5424121638219
			36.4807815520028	-25.5570748573717
			36.4807815520028	-25.5717375509216
			36.4807815520028	-25.5864002444714
			36.466118858453	-25.6010629380213
			36.466118858453	-25.6157256315711
			36.466118858453	-25.630388325121
			36.466118858453	-25.6450510186708
			36.466118858453	-25.6597137122206
			36.466118858453	-25.6743764057705
			36.466118858453	-25.6890390993203
			36.466118858453	-25.7037017928702
			36.466118858453	-25.71836448642
			36.466118858453	-25.7330271799698
			36.466118858453	-25.7476898735197
			36.466118858453	-25.7623525670695
			36.466118858453	-25.7770152606194
			36.466118858453	-25.7916779541692
			36.466118858453	-25.806340647719
			36.4514561649031	-25.8210033412689
			36.4514561649031	-25.8356660348187
			36.4514561649031	-25.8503287283686
			36.4514561649031	-25.8649914219184
			36.4514561649031	-25.8796541154682
			36.4367934713533	-25.8943168090181
			36.4367934713533	-25.9089795025679
			36.4367934713533	-25.9236421961178
			36.4221307778035	-25.9383048896676
			36.4221307778035	-25.9529675832174
			36.4221307778035	-25.9676302767673
			36.4074680842536	-25.9822929703171
			36.4074680842536	-25.996955663867
			36.3928053907038	-26.0116183574168
			36.3928053907038	-26.0262810509666
			36.3928053907038	-26.0409437445165
			36.3781426971539	-26.0409437445165
			36.3781426971539	-26.0556064380663
			36.3781426971539	-26.0702691316162
			36.3634800036041	-26.0702691316162
			36.3488173100543	-26.084931825166
			36.3341546165044	-26.0995945187158
			36.3341546165044	-26.1142572122657
			36.3194919229546	-26.1289199058155
			36.3048292294047	-26.1289199058155
			36.2901665358549	-26.1435825993654
			36.2755038423051	-26.1582452929152
			36.2755038423051	-26.172907986465
			36.2608411487552	-26.1875706800149
			36.2461784552054	-26.1875706800149
			36.2315157616555	-26.2022333735647
			36.2168530681057	-26.2168960671146
			36.2168530681057	-26.2315587606644
			36.2021903745559	-26.2315587606644
			36.187527681006	-26.2462214542142
			36.1728649874562	-26.2462214542142
			36.1582022939063	-26.2608841477641
			36.1435396003565	-26.2755468413139
			36.1288769068067	-26.2755468413139
			36.1142142132568	-26.2902095348638
			36.099551519707	-26.2902095348638
			36.099551519707	-26.3048722284136
			36.0848888261571	-26.3048722284136
			36.0702261326073	-26.3195349219634
			36.0555634390575	-26.3195349219634
			36.0409007455076	-26.3341976155133
			36.0262380519578	-26.3488603090631
			36.0115753584079	-26.3488603090631
			35.9969126648581	-26.363523002613
			35.9822499713082	-26.363523002613
			35.9675872777584	-26.3781856961628
			35.9529245842086	-26.3928483897127
			35.9382618906587	-26.3928483897127
			35.9382618906587	-26.4075110832625
			35.9235991971089	-26.4221737768123
			35.908936503559	-26.4368364703622
			35.8942738100092	-26.451499163912
			35.8796111164594	-26.4661618574619
			35.8649484229095	-26.4661618574619
			35.8502857293597	-26.4808245510117
			35.8502857293597	-26.4954872445615
			35.8356230358098	-26.5101499381114
			35.82096034226	-26.5248126316612
			35.8062976487102	-26.5394753252111
			35.7916349551603	-26.5541380187609
			35.7769722616105	-26.5688007123107
			35.7769722616105	-26.5834634058606
			35.7623095680606	-26.5834634058606
			35.7623095680606	-26.5981260994104
			35.7476468745108	-26.6127887929603
		</Outline4>
	</curves.scaled>
	<ruler.points type=matrix rownames=TRUE colnames=FALSE nrow=2 ncol=2 as.numeric=TRUE >
		Ruler point 1	2751	2590
		Ruler point 2	2069	2592
	</ruler.points>
</shapes>

