<shapes type=list>
	<ruler.pixel type=vector names=FALSE length=1 as.numeric=TRUE >1956.02070541188</ruler.pixel>
	<ruler.interval type=vector names=FALSE length=1 as.numeric=TRUE >10</ruler.interval>
	<scaling.units type=vector names=FALSE length=1 as.numeric=FALSE >mm</scaling.units>
	<scaling type=vector names=FALSE length=1 as.numeric=TRUE >0.00511242031964804</scaling>
	<landmarks.pixel type=matrix rownames=TRUE colnames=FALSE nrow=4 ncol=2 as.numeric=TRUE >
		Labial	2369	1401
		Posterior	2293	1368
		Lingual	2324	1291
		Anterior	2403	1323
	</landmarks.pixel>
	<landmarks.scaled type=matrix rownames=TRUE colnames=FALSE nrow=4 ncol=2 as.numeric=TRUE >
		Labial	12.1113237372462	-7.1625008678269
		Posterior	11.722779792953	-6.99379099727852
		Lingual	11.881264822862	-6.60013463266562
		Anterior	12.2851460281142	-6.76373208289435
	</landmarks.scaled>
	<curves.control type=list>
		<Outline1 type=matrix rownames=FALSE colnames=FALSE nrow=15 ncol=2 as.numeric=TRUE >
			2369	1401
			2362	1403
			2356	1407
			2350	1409
			2343	1410
			2336	1409
			2330	1407
			2324	1405
			2319	1402
			2314	1398
			2310	1394
			2305	1390
			2301	1386
			2297	1379
			2293	1368
		</Outline1>
		<Outline2 type=matrix rownames=FALSE colnames=FALSE nrow=13 ncol=2 as.numeric=TRUE >
			2293	1368
			2290	1358
			2289	1350
			2288	1341
			2289	1331
			2291	1322
			2294	1313
			2297	1309
			2301	1304
			2306	1300
			2312	1297
			2318	1294
			2324	1291
		</Outline2>
		<Outline3 type=matrix rownames=FALSE colnames=FALSE nrow=15 ncol=2 as.numeric=TRUE >
			2324	1291
			2331	1289
			2339	1288
			2346	1288
			2354	1288
			2360	1288
			2367	1289
			2374	1292
			2379	1295
			2385	1300
			2391	1306
			2395	1310
			2398	1314
			2400	1317
			2403	1323
		</Outline3>
		<Outline4 type=matrix rownames=FALSE colnames=FALSE nrow=15 ncol=2 as.numeric=TRUE >
			2403	1323
			2407	1331
			2409	1338
			2411	1345
			2411	1352
			2411	1361
			2409	1367
			2406	1373
			2403	1377
			2400	1382
			2396	1386
			2391	1391
			2386	1394
			2379	1397
			2369	1401
		</Outline4>
	</curves.control>
	<curves.pixel type=list>
		<Outline1 type=matrix rownames=FALSE colnames=FALSE nrow=88 ncol=2 as.numeric=TRUE >
			2369	1401
			2368	1401
			2367	1402
			2366	1402
			2365	1402
			2364	1403
			2363	1403
			2362	1404
			2361	1404
			2360	1404
			2359	1405
			2358	1406
			2357	1407
			2356	1407
			2355	1407
			2354	1408
			2353	1408
			2352	1408
			2351	1408
			2350	1409
			2349	1409
			2348	1409
			2347	1409
			2346	1410
			2345	1410
			2344	1410
			2343	1410
			2342	1410
			2341	1410
			2340	1409
			2339	1409
			2338	1409
			2337	1409
			2336	1409
			2335	1408
			2334	1408
			2333	1408
			2332	1408
			2331	1407
			2330	1407
			2329	1407
			2328	1406
			2327	1406
			2326	1405
			2325	1405
			2324	1404
			2323	1404
			2322	1404
			2321	1403
			2320	1403
			2319	1402
			2318	1401
			2317	1401
			2316	1400
			2316	1399
			2315	1398
			2314	1398
			2313	1397
			2312	1396
			2311	1395
			2310	1394
			2309	1393
			2308	1392
			2307	1391
			2306	1391
			2305	1390
			2304	1389
			2303	1388
			2302	1387
			2301	1386
			2300	1385
			2300	1384
			2299	1383
			2299	1382
			2298	1381
			2298	1380
			2297	1379
			2297	1378
			2297	1377
			2296	1376
			2296	1375
			2295	1374
			2295	1373
			2295	1372
			2294	1371
			2294	1370
			2293	1369
			2293	1368
		</Outline1>
		<Outline2 type=matrix rownames=FALSE colnames=FALSE nrow=90 ncol=2 as.numeric=TRUE >
			2293	1368
			2293	1367
			2292	1366
			2292	1365
			2292	1364
			2292	1363
			2291	1362
			2291	1361
			2291	1360
			2291	1359
			2290	1358
			2290	1357
			2290	1356
			2290	1355
			2290	1354
			2289	1353
			2289	1352
			2289	1351
			2289	1350
			2289	1349
			2289	1348
			2289	1347
			2289	1346
			2289	1345
			2289	1344
			2289	1343
			2289	1342
			2289	1341
			2289	1340
			2289	1339
			2289	1338
			2289	1337
			2289	1336
			2289	1335
			2289	1334
			2289	1333
			2289	1332
			2289	1331
			2289	1330
			2289	1329
			2290	1328
			2290	1327
			2290	1326
			2290	1325
			2291	1324
			2291	1323
			2291	1322
			2291	1321
			2292	1321
			2292	1320
			2292	1319
			2292	1318
			2293	1317
			2293	1316
			2293	1315
			2294	1314
			2294	1313
			2295	1312
			2296	1311
			2296	1310
			2297	1309
			2297	1308
			2298	1308
			2299	1307
			2300	1306
			2300	1305
			2301	1304
			2302	1303
			2303	1302
			2304	1302
			2305	1301
			2306	1300
			2307	1300
			2308	1299
			2309	1298
			2310	1298
			2311	1297
			2312	1297
			2313	1296
			2314	1296
			2315	1296
			2316	1295
			2317	1294
			2318	1294
			2319	1293
			2320	1293
			2321	1292
			2322	1292
			2323	1291
			2324	1291
		</Outline2>
		<Outline3 type=matrix rownames=FALSE colnames=FALSE nrow=88 ncol=2 as.numeric=TRUE >
			2324	1291
			2325	1291
			2326	1290
			2327	1290
			2328	1290
			2329	1290
			2330	1289
			2331	1289
			2332	1289
			2333	1289
			2334	1289
			2335	1289
			2336	1288
			2337	1288
			2338	1288
			2339	1288
			2340	1288
			2341	1288
			2342	1288
			2343	1288
			2344	1288
			2345	1288
			2346	1288
			2347	1288
			2348	1288
			2349	1288
			2350	1288
			2351	1288
			2352	1288
			2353	1288
			2354	1288
			2355	1288
			2356	1288
			2357	1288
			2358	1288
			2359	1288
			2360	1288
			2361	1288
			2362	1288
			2363	1289
			2364	1289
			2365	1289
			2366	1289
			2367	1289
			2368	1290
			2369	1290
			2370	1290
			2371	1291
			2372	1291
			2373	1292
			2374	1292
			2375	1293
			2376	1294
			2377	1294
			2378	1295
			2379	1295
			2380	1296
			2381	1296
			2381	1297
			2382	1298
			2383	1298
			2383	1299
			2384	1299
			2385	1300
			2385	1301
			2386	1301
			2387	1302
			2388	1303
			2389	1304
			2390	1305
			2391	1306
			2392	1307
			2393	1308
			2394	1309
			2395	1310
			2395	1311
			2396	1312
			2397	1313
			2398	1314
			2399	1315
			2399	1316
			2400	1317
			2400	1318
			2401	1319
			2402	1320
			2402	1321
			2402	1322
			2403	1323
		</Outline3>
		<Outline4 type=matrix rownames=FALSE colnames=FALSE nrow=93 ncol=2 as.numeric=TRUE >
			2403	1323
			2404	1324
			2404	1325
			2405	1326
			2405	1327
			2406	1328
			2406	1329
			2406	1330
			2407	1331
			2407	1332
			2407	1333
			2408	1334
			2408	1335
			2408	1336
			2409	1337
			2409	1338
			2409	1339
			2409	1340
			2410	1340
			2410	1341
			2410	1342
			2410	1343
			2410	1344
			2410	1345
			2411	1345
			2411	1346
			2411	1347
			2411	1348
			2411	1349
			2411	1350
			2411	1351
			2411	1352
			2411	1353
			2411	1354
			2411	1355
			2411	1356
			2411	1357
			2411	1358
			2411	1359
			2411	1360
			2410	1361
			2410	1362
			2410	1363
			2410	1364
			2410	1365
			2409	1366
			2409	1367
			2408	1368
			2408	1369
			2408	1370
			2407	1371
			2406	1372
			2406	1373
			2405	1374
			2405	1375
			2404	1376
			2403	1377
			2402	1378
			2402	1379
			2401	1380
			2400	1381
			2399	1382
			2399	1383
			2398	1384
			2397	1385
			2396	1386
			2395	1387
			2394	1388
			2393	1389
			2392	1390
			2391	1391
			2390	1392
			2389	1392
			2388	1393
			2387	1393
			2386	1394
			2385	1394
			2384	1395
			2383	1395
			2382	1395
			2381	1396
			2380	1396
			2379	1397
			2378	1397
			2377	1398
			2376	1398
			2375	1399
			2374	1399
			2373	1399
			2372	1400
			2371	1400
			2370	1401
			2369	1401
		</Outline4>
	</curves.pixel>
	<curves.scaled type=list>
		<Outline1 type=matrix rownames=FALSE colnames=FALSE nrow=88 ncol=2 as.numeric=TRUE >
			12.1113237372462	-7.1625008678269
			12.1062113169266	-7.1625008678269
			12.1010988966069	-7.16761328814655
			12.0959864762873	-7.16761328814655
			12.0908740559676	-7.16761328814655
			12.085761635648	-7.1727257084662
			12.0806492153283	-7.1727257084662
			12.0755367950087	-7.17783812878585
			12.070424374689	-7.17783812878585
			12.0653119543694	-7.17783812878585
			12.0601995340497	-7.18295054910549
			12.0550871137301	-7.18806296942514
			12.0499746934104	-7.19317538974479
			12.0448622730908	-7.19317538974479
			12.0397498527711	-7.19317538974479
			12.0346374324515	-7.19828781006444
			12.0295250121318	-7.19828781006444
			12.0244125918122	-7.19828781006444
			12.0193001714925	-7.19828781006444
			12.0141877511729	-7.20340023038409
			12.0090753308532	-7.20340023038409
			12.0039629105336	-7.20340023038409
			11.9988504902139	-7.20340023038409
			11.9937380698943	-7.20851265070373
			11.9886256495747	-7.20851265070373
			11.983513229255	-7.20851265070373
			11.9784008089354	-7.20851265070373
			11.9732883886157	-7.20851265070373
			11.9681759682961	-7.20851265070373
			11.9630635479764	-7.20340023038409
			11.9579511276568	-7.20340023038409
			11.9528387073371	-7.20340023038409
			11.9477262870175	-7.20340023038409
			11.9426138666978	-7.20340023038409
			11.9375014463782	-7.19828781006444
			11.9323890260585	-7.19828781006444
			11.9272766057389	-7.19828781006444
			11.9221641854192	-7.19828781006444
			11.9170517650996	-7.19317538974479
			11.9119393447799	-7.19317538974479
			11.9068269244603	-7.19317538974479
			11.9017145041406	-7.18806296942514
			11.896602083821	-7.18806296942514
			11.8914896635013	-7.18295054910549
			11.8863772431817	-7.18295054910549
			11.881264822862	-7.17783812878585
			11.8761524025424	-7.17783812878585
			11.8710399822227	-7.17783812878585
			11.8659275619031	-7.1727257084662
			11.8608151415834	-7.1727257084662
			11.8557027212638	-7.16761328814655
			11.8505903009442	-7.1625008678269
			11.8454778806245	-7.1625008678269
			11.8403654603049	-7.15738844750725
			11.8403654603049	-7.15227602718761
			11.8352530399852	-7.14716360686796
			11.8301406196656	-7.14716360686796
			11.8250281993459	-7.14205118654831
			11.8199157790263	-7.13693876622866
			11.8148033587066	-7.13182634590901
			11.809690938387	-7.12671392558937
			11.8045785180673	-7.12160150526972
			11.7994660977477	-7.11648908495007
			11.794353677428	-7.11137666463042
			11.7892412571084	-7.11137666463042
			11.7841288367887	-7.10626424431077
			11.7790164164691	-7.10115182399113
			11.7739039961494	-7.09603940367148
			11.7687915758298	-7.09092698335183
			11.7636791555101	-7.08581456303218
			11.7585667351905	-7.08070214271253
			11.7585667351905	-7.07558972239288
			11.7534543148708	-7.07047730207324
			11.7534543148708	-7.06536488175359
			11.7483418945512	-7.06025246143394
			11.7483418945512	-7.05514004111429
			11.7432294742315	-7.05002762079465
			11.7432294742315	-7.044915200475
			11.7432294742315	-7.03980278015535
			11.7381170539119	-7.0346903598357
			11.7381170539119	-7.02957793951605
			11.7330046335922	-7.02446551919641
			11.7330046335922	-7.01935309887676
			11.7330046335922	-7.01424067855711
			11.7278922132726	-7.00912825823746
			11.7278922132726	-7.00401583791781
			11.722779792953	-6.99890341759816
			11.722779792953	-6.99379099727852
		</Outline1>
		<Outline2 type=matrix rownames=FALSE colnames=FALSE nrow=90 ncol=2 as.numeric=TRUE >
			11.722779792953	-6.99379099727852
			11.722779792953	-6.98867857695887
			11.7176673726333	-6.98356615663922
			11.7176673726333	-6.97845373631957
			11.7176673726333	-6.97334131599992
			11.7176673726333	-6.96822889568028
			11.7125549523137	-6.96311647536063
			11.7125549523137	-6.95800405504098
			11.7125549523137	-6.95289163472133
			11.7125549523137	-6.94777921440168
			11.707442531994	-6.94266679408204
			11.707442531994	-6.93755437376239
			11.707442531994	-6.93244195344274
			11.707442531994	-6.92732953312309
			11.707442531994	-6.92221711280344
			11.7023301116744	-6.9171046924838
			11.7023301116744	-6.91199227216415
			11.7023301116744	-6.9068798518445
			11.7023301116744	-6.90176743152485
			11.7023301116744	-6.8966550112052
			11.7023301116744	-6.89154259088556
			11.7023301116744	-6.88643017056591
			11.7023301116744	-6.88131775024626
			11.7023301116744	-6.87620532992661
			11.7023301116744	-6.87109290960696
			11.7023301116744	-6.86598048928732
			11.7023301116744	-6.86086806896767
			11.7023301116744	-6.85575564864802
			11.7023301116744	-6.85064322832837
			11.7023301116744	-6.84553080800872
			11.7023301116744	-6.84041838768908
			11.7023301116744	-6.83530596736943
			11.7023301116744	-6.83019354704978
			11.7023301116744	-6.82508112673013
			11.7023301116744	-6.81996870641048
			11.7023301116744	-6.81485628609084
			11.7023301116744	-6.80974386577119
			11.7023301116744	-6.80463144545154
			11.7023301116744	-6.79951902513189
			11.7023301116744	-6.79440660481224
			11.707442531994	-6.7892941844926
			11.707442531994	-6.78418176417295
			11.707442531994	-6.7790693438533
			11.707442531994	-6.77395692353365
			11.7125549523137	-6.768844503214
			11.7125549523137	-6.76373208289435
			11.7125549523137	-6.75861966257471
			11.7125549523137	-6.75350724225506
			11.7176673726333	-6.75350724225506
			11.7176673726333	-6.74839482193541
			11.7176673726333	-6.74328240161576
			11.7176673726333	-6.73816998129611
			11.722779792953	-6.73305756097647
			11.722779792953	-6.72794514065682
			11.722779792953	-6.72283272033717
			11.7278922132726	-6.71772030001752
			11.7278922132726	-6.71260787969787
			11.7330046335922	-6.70749545937823
			11.7381170539119	-6.70238303905858
			11.7381170539119	-6.69727061873893
			11.7432294742315	-6.69215819841928
			11.7432294742315	-6.68704577809963
			11.7483418945512	-6.68704577809963
			11.7534543148708	-6.68193335777999
			11.7585667351905	-6.67682093746034
			11.7585667351905	-6.67170851714069
			11.7636791555101	-6.66659609682104
			11.7687915758298	-6.66148367650139
			11.7739039961494	-6.65637125618175
			11.7790164164691	-6.65637125618175
			11.7841288367887	-6.6512588358621
			11.7892412571084	-6.64614641554245
			11.794353677428	-6.64614641554245
			11.7994660977477	-6.6410339952228
			11.8045785180673	-6.63592157490315
			11.809690938387	-6.63592157490315
			11.8148033587066	-6.63080915458351
			11.8199157790263	-6.63080915458351
			11.8250281993459	-6.62569673426386
			11.8301406196656	-6.62569673426386
			11.8352530399852	-6.62569673426386
			11.8403654603049	-6.62058431394421
			11.8454778806245	-6.61547189362456
			11.8505903009442	-6.61547189362456
			11.8557027212638	-6.61035947330491
			11.8608151415834	-6.61035947330491
			11.8659275619031	-6.60524705298527
			11.8710399822227	-6.60524705298527
			11.8761524025424	-6.60013463266562
			11.881264822862	-6.60013463266562
		</Outline2>
		<Outline3 type=matrix rownames=FALSE colnames=FALSE nrow=88 ncol=2 as.numeric=TRUE >
			11.881264822862	-6.60013463266562
			11.8863772431817	-6.60013463266562
			11.8914896635013	-6.59502221234597
			11.896602083821	-6.59502221234597
			11.9017145041406	-6.59502221234597
			11.9068269244603	-6.59502221234597
			11.9119393447799	-6.58990979202632
			11.9170517650996	-6.58990979202632
			11.9221641854192	-6.58990979202632
			11.9272766057389	-6.58990979202632
			11.9323890260585	-6.58990979202632
			11.9375014463782	-6.58990979202632
			11.9426138666978	-6.58479737170667
			11.9477262870175	-6.58479737170667
			11.9528387073371	-6.58479737170667
			11.9579511276568	-6.58479737170667
			11.9630635479764	-6.58479737170667
			11.9681759682961	-6.58479737170667
			11.9732883886157	-6.58479737170667
			11.9784008089354	-6.58479737170667
			11.983513229255	-6.58479737170667
			11.9886256495747	-6.58479737170667
			11.9937380698943	-6.58479737170667
			11.9988504902139	-6.58479737170667
			12.0039629105336	-6.58479737170667
			12.0090753308532	-6.58479737170667
			12.0141877511729	-6.58479737170667
			12.0193001714925	-6.58479737170667
			12.0244125918122	-6.58479737170667
			12.0295250121318	-6.58479737170667
			12.0346374324515	-6.58479737170667
			12.0397498527711	-6.58479737170667
			12.0448622730908	-6.58479737170667
			12.0499746934104	-6.58479737170667
			12.0550871137301	-6.58479737170667
			12.0601995340497	-6.58479737170667
			12.0653119543694	-6.58479737170667
			12.070424374689	-6.58479737170667
			12.0755367950087	-6.58479737170667
			12.0806492153283	-6.58990979202632
			12.085761635648	-6.58990979202632
			12.0908740559676	-6.58990979202632
			12.0959864762873	-6.58990979202632
			12.1010988966069	-6.58990979202632
			12.1062113169266	-6.59502221234597
			12.1113237372462	-6.59502221234597
			12.1164361575659	-6.59502221234597
			12.1215485778855	-6.60013463266562
			12.1266609982051	-6.60013463266562
			12.1317734185248	-6.60524705298527
			12.1368858388444	-6.60524705298527
			12.1419982591641	-6.61035947330491
			12.1471106794837	-6.61547189362456
			12.1522230998034	-6.61547189362456
			12.157335520123	-6.62058431394421
			12.1624479404427	-6.62058431394421
			12.1675603607623	-6.62569673426386
			12.172672781082	-6.62569673426386
			12.172672781082	-6.63080915458351
			12.1777852014016	-6.63592157490315
			12.1828976217213	-6.63592157490315
			12.1828976217213	-6.6410339952228
			12.1880100420409	-6.6410339952228
			12.1931224623606	-6.64614641554245
			12.1931224623606	-6.6512588358621
			12.1982348826802	-6.6512588358621
			12.2033473029999	-6.65637125618175
			12.2084597233195	-6.66148367650139
			12.2135721436392	-6.66659609682104
			12.2186845639588	-6.67170851714069
			12.2237969842785	-6.67682093746034
			12.2289094045981	-6.68193335777999
			12.2340218249178	-6.68704577809963
			12.2391342452374	-6.69215819841928
			12.2442466655571	-6.69727061873893
			12.2442466655571	-6.70238303905858
			12.2493590858767	-6.70749545937823
			12.2544715061963	-6.71260787969787
			12.259583926516	-6.71772030001752
			12.2646963468356	-6.72283272033717
			12.2646963468356	-6.72794514065682
			12.2698087671553	-6.73305756097647
			12.2698087671553	-6.73816998129611
			12.2749211874749	-6.74328240161576
			12.2800336077946	-6.74839482193541
			12.2800336077946	-6.75350724225506
			12.2800336077946	-6.75861966257471
			12.2851460281142	-6.76373208289435
		</Outline3>
		<Outline4 type=matrix rownames=FALSE colnames=FALSE nrow=93 ncol=2 as.numeric=TRUE >
			12.2851460281142	-6.76373208289435
			12.2902584484339	-6.768844503214
			12.2902584484339	-6.77395692353365
			12.2953708687535	-6.7790693438533
			12.2953708687535	-6.78418176417295
			12.3004832890732	-6.7892941844926
			12.3004832890732	-6.79440660481224
			12.3004832890732	-6.79951902513189
			12.3055957093928	-6.80463144545154
			12.3055957093928	-6.80974386577119
			12.3055957093928	-6.81485628609084
			12.3107081297125	-6.81996870641048
			12.3107081297125	-6.82508112673013
			12.3107081297125	-6.83019354704978
			12.3158205500321	-6.83530596736943
			12.3158205500321	-6.84041838768908
			12.3158205500321	-6.84553080800872
			12.3158205500321	-6.85064322832837
			12.3209329703518	-6.85064322832837
			12.3209329703518	-6.85575564864802
			12.3209329703518	-6.86086806896767
			12.3209329703518	-6.86598048928732
			12.3209329703518	-6.87109290960696
			12.3209329703518	-6.87620532992661
			12.3260453906714	-6.87620532992661
			12.3260453906714	-6.88131775024626
			12.3260453906714	-6.88643017056591
			12.3260453906714	-6.89154259088556
			12.3260453906714	-6.8966550112052
			12.3260453906714	-6.90176743152485
			12.3260453906714	-6.9068798518445
			12.3260453906714	-6.91199227216415
			12.3260453906714	-6.9171046924838
			12.3260453906714	-6.92221711280344
			12.3260453906714	-6.92732953312309
			12.3260453906714	-6.93244195344274
			12.3260453906714	-6.93755437376239
			12.3260453906714	-6.94266679408204
			12.3260453906714	-6.94777921440168
			12.3260453906714	-6.95289163472133
			12.3209329703518	-6.95800405504098
			12.3209329703518	-6.96311647536063
			12.3209329703518	-6.96822889568028
			12.3209329703518	-6.97334131599992
			12.3209329703518	-6.97845373631957
			12.3158205500321	-6.98356615663922
			12.3158205500321	-6.98867857695887
			12.3107081297125	-6.99379099727852
			12.3107081297125	-6.99890341759816
			12.3107081297125	-7.00401583791781
			12.3055957093928	-7.00912825823746
			12.3004832890732	-7.01424067855711
			12.3004832890732	-7.01935309887676
			12.2953708687535	-7.02446551919641
			12.2953708687535	-7.02957793951605
			12.2902584484339	-7.0346903598357
			12.2851460281142	-7.03980278015535
			12.2800336077946	-7.044915200475
			12.2800336077946	-7.05002762079465
			12.2749211874749	-7.05514004111429
			12.2698087671553	-7.06025246143394
			12.2646963468356	-7.06536488175359
			12.2646963468356	-7.07047730207324
			12.259583926516	-7.07558972239288
			12.2544715061963	-7.08070214271253
			12.2493590858767	-7.08581456303218
			12.2442466655571	-7.09092698335183
			12.2391342452374	-7.09603940367148
			12.2340218249178	-7.10115182399113
			12.2289094045981	-7.10626424431077
			12.2237969842785	-7.11137666463042
			12.2186845639588	-7.11648908495007
			12.2135721436392	-7.11648908495007
			12.2084597233195	-7.12160150526972
			12.2033473029999	-7.12160150526972
			12.1982348826802	-7.12671392558937
			12.1931224623606	-7.12671392558937
			12.1880100420409	-7.13182634590901
			12.1828976217213	-7.13182634590901
			12.1777852014016	-7.13182634590901
			12.172672781082	-7.13693876622866
			12.1675603607623	-7.13693876622866
			12.1624479404427	-7.14205118654831
			12.157335520123	-7.14205118654831
			12.1522230998034	-7.14716360686796
			12.1471106794837	-7.14716360686796
			12.1419982591641	-7.15227602718761
			12.1368858388444	-7.15227602718761
			12.1317734185248	-7.15227602718761
			12.1266609982051	-7.15738844750725
			12.1215485778855	-7.15738844750725
			12.1164361575659	-7.1625008678269
			12.1113237372462	-7.1625008678269
		</Outline4>
	</curves.scaled>
	<ruler.points type=matrix rownames=TRUE colnames=FALSE nrow=2 ncol=2 as.numeric=TRUE >
		Ruler point 1	3893	2509
		Ruler point 2	1937	2518
	</ruler.points>
</shapes>

