<shapes type=list>
	<ruler.pixel type=vector names=FALSE length=1 as.numeric=TRUE >689.383782808966</ruler.pixel>
	<ruler.interval type=vector names=FALSE length=1 as.numeric=TRUE >10</ruler.interval>
	<scaling.units type=vector names=FALSE length=1 as.numeric=FALSE >mm</scaling.units>
	<scaling type=vector names=FALSE length=1 as.numeric=TRUE >0.0145057082127084</scaling>
	<landmarks.pixel type=matrix rownames=TRUE colnames=FALSE nrow=4 ncol=2 as.numeric=TRUE >
		Labial	2268	942
		Posterior	2162	888
		Lingual	2230	791
		Anterior	2336	847
	</landmarks.pixel>
	<landmarks.scaled type=matrix rownames=TRUE colnames=FALSE nrow=4 ncol=2 as.numeric=TRUE >
		Labial	32.8989462264226	-13.6643771363713
		Posterior	31.3613411558755	-12.8810688928851
		Lingual	32.3477293143397	-11.4740151962523
		Anterior	33.8853343848868	-12.286334856164
	</landmarks.scaled>
	<curves.control type=list>
		<Outline1 type=matrix rownames=FALSE colnames=FALSE nrow=21 ncol=2 as.numeric=TRUE >
			2268	942
			2263	947
			2257	951
			2249	955
			2242	961
			2234	966
			2228	969
			2220	971
			2213	972
			2205	971
			2197	969
			2190	966
			2184	963
			2179	958
			2174	953
			2169	946
			2167	939
			2166	930
			2165	914
			2164	902
			2162	888
		</Outline1>
		<Outline2 type=matrix rownames=FALSE colnames=FALSE nrow=15 ncol=2 as.numeric=TRUE >
			2162	888
			2161	876
			2162	866
			2164	856
			2168	848
			2171	840
			2173	832
			2175	822
			2177	813
			2181	804
			2187	799
			2196	795
			2204	793
			2216	791
			2230	791
		</Outline2>
		<Outline3 type=matrix rownames=FALSE colnames=FALSE nrow=17 ncol=2 as.numeric=TRUE >
			2230	791
			2241	792
			2252	792
			2261	791
			2273	791
			2286	793
			2295	795
			2303	797
			2312	802
			2319	809
			2324	816
			2328	822
			2332	828
			2334	834
			2334	840
			2336	844
			2336	847
		</Outline3>
		<Outline4 type=matrix rownames=FALSE colnames=FALSE nrow=15 ncol=2 as.numeric=TRUE >
			2336	847
			2339	854
			2341	865
			2342	874
			2341	885
			2338	899
			2334	909
			2328	917
			2320	924
			2314	929
			2307	933
			2294	936
			2285	937
			2276	937
			2268	942
		</Outline4>
	</curves.control>
	<curves.pixel type=list>
		<Outline1 type=matrix rownames=FALSE colnames=FALSE nrow=167 ncol=2 as.numeric=TRUE >
			2268	942
			2267	943
			2266	944
			2265	945
			2264	946
			2263	947
			2262	947
			2261	948
			2260	949
			2259	950
			2258	950
			2257	951
			2256	952
			2255	952
			2254	952
			2254	953
			2253	953
			2252	954
			2251	954
			2251	955
			2250	955
			2249	956
			2248	956
			2248	957
			2247	957
			2246	958
			2245	958
			2245	959
			2244	959
			2243	960
			2242	961
			2241	962
			2240	962
			2239	963
			2238	963
			2237	964
			2236	965
			2235	965
			2234	966
			2233	967
			2232	967
			2231	968
			2230	968
			2229	968
			2228	969
			2227	969
			2226	969
			2225	970
			2224	970
			2223	970
			2222	970
			2221	971
			2220	971
			2219	971
			2218	971
			2217	971
			2216	972
			2215	972
			2214	972
			2213	972
			2212	972
			2211	972
			2210	972
			2209	971
			2208	971
			2207	971
			2206	971
			2205	971
			2204	971
			2203	970
			2202	970
			2201	970
			2200	970
			2199	969
			2198	969
			2197	969
			2196	969
			2195	968
			2194	968
			2193	967
			2192	967
			2191	966
			2190	966
			2189	965
			2188	965
			2187	964
			2186	964
			2185	964
			2184	963
			2183	962
			2182	961
			2181	960
			2180	959
			2179	958
			2178	957
			2177	956
			2176	955
			2175	954
			2174	953
			2173	952
			2173	951
			2172	950
			2172	949
			2171	949
			2171	948
			2170	947
			2170	946
			2169	945
			2169	944
			2168	943
			2168	942
			2168	941
			2167	941
			2167	940
			2167	939
			2167	938
			2167	937
			2167	936
			2167	935
			2166	934
			2166	933
			2166	932
			2166	931
			2166	930
			2166	929
			2166	928
			2166	927
			2166	926
			2166	925
			2166	924
			2166	923
			2165	922
			2165	921
			2165	920
			2165	919
			2165	918
			2165	917
			2165	916
			2165	915
			2165	914
			2165	913
			2165	912
			2165	911
			2165	910
			2165	909
			2164	909
			2164	908
			2164	907
			2164	906
			2164	905
			2164	904
			2164	903
			2164	902
			2164	901
			2164	900
			2163	899
			2163	898
			2163	897
			2163	896
			2163	895
			2163	894
			2163	893
			2163	892
			2162	891
			2162	890
			2162	889
			2162	888
		</Outline1>
		<Outline2 type=matrix rownames=FALSE colnames=FALSE nrow=135 ncol=2 as.numeric=TRUE >
			2162	888
			2162	887
			2162	886
			2162	885
			2162	884
			2162	883
			2162	882
			2162	881
			2162	880
			2162	879
			2162	878
			2162	877
			2162	876
			2162	875
			2162	874
			2162	873
			2162	872
			2162	871
			2162	870
			2162	869
			2162	868
			2162	867
			2162	866
			2162	865
			2163	864
			2163	863
			2163	862
			2163	861
			2164	860
			2164	859
			2164	858
			2164	857
			2165	856
			2165	855
			2165	854
			2166	853
			2166	852
			2167	851
			2167	850
			2167	849
			2168	849
			2168	848
			2168	847
			2169	846
			2169	845
			2169	844
			2170	844
			2170	843
			2170	842
			2170	841
			2171	840
			2171	839
			2171	838
			2172	837
			2172	836
			2172	835
			2173	834
			2173	833
			2173	832
			2173	831
			2173	830
			2174	829
			2174	828
			2174	827
			2174	826
			2174	825
			2175	824
			2175	823
			2175	822
			2175	821
			2176	820
			2176	819
			2176	818
			2176	817
			2176	816
			2177	815
			2177	814
			2177	813
			2178	812
			2178	811
			2179	810
			2179	809
			2179	808
			2180	807
			2181	806
			2182	805
			2182	804
			2183	803
			2184	802
			2185	801
			2186	800
			2187	799
			2188	798
			2189	798
			2190	798
			2191	797
			2192	797
			2193	796
			2194	796
			2195	796
			2196	795
			2197	795
			2198	795
			2199	794
			2200	794
			2201	794
			2202	794
			2203	793
			2204	793
			2205	793
			2206	793
			2207	793
			2208	792
			2209	792
			2210	792
			2211	792
			2212	792
			2213	792
			2214	792
			2215	792
			2216	792
			2217	791
			2218	791
			2219	791
			2220	791
			2221	791
			2222	791
			2223	791
			2224	791
			2225	791
			2226	791
			2227	791
			2228	791
			2229	791
			2230	791
		</Outline2>
		<Outline3 type=matrix rownames=FALSE colnames=FALSE nrow=128 ncol=2 as.numeric=TRUE >
			2230	791
			2231	791
			2232	791
			2233	791
			2234	791
			2235	791
			2236	791
			2237	792
			2238	792
			2239	792
			2240	792
			2241	792
			2242	792
			2243	792
			2244	792
			2245	792
			2246	792
			2247	792
			2248	792
			2249	792
			2250	792
			2251	792
			2252	792
			2253	792
			2254	792
			2255	792
			2256	792
			2257	792
			2258	791
			2259	791
			2260	791
			2261	791
			2262	791
			2263	791
			2264	791
			2265	791
			2266	791
			2267	791
			2268	791
			2269	791
			2270	791
			2271	791
			2272	791
			2273	791
			2274	791
			2275	791
			2276	791
			2277	792
			2278	792
			2279	792
			2280	792
			2281	792
			2282	792
			2283	793
			2284	793
			2285	793
			2286	793
			2287	793
			2288	794
			2289	794
			2290	794
			2291	794
			2292	794
			2293	795
			2294	795
			2295	795
			2296	795
			2297	796
			2298	796
			2299	796
			2300	796
			2301	797
			2302	797
			2303	798
			2304	798
			2305	798
			2306	799
			2307	799
			2308	800
			2309	800
			2310	801
			2311	801
			2312	802
			2313	803
			2314	804
			2315	805
			2316	806
			2317	807
			2318	808
			2318	809
			2319	810
			2320	811
			2321	812
			2322	813
			2322	814
			2323	815
			2324	816
			2325	817
			2325	818
			2326	819
			2327	820
			2327	821
			2328	822
			2329	823
			2329	824
			2330	825
			2331	826
			2331	827
			2332	828
			2332	829
			2333	830
			2333	831
			2333	832
			2333	833
			2333	834
			2334	835
			2334	836
			2334	837
			2334	838
			2334	839
			2334	840
			2335	841
			2335	842
			2335	843
			2336	844
			2336	845
			2336	846
			2336	847
		</Outline3>
		<Outline4 type=matrix rownames=FALSE colnames=FALSE nrow=140 ncol=2 as.numeric=TRUE >
			2336	847
			2336	848
			2337	848
			2337	849
			2337	850
			2337	851
			2338	852
			2338	853
			2339	854
			2339	855
			2339	856
			2339	857
			2339	858
			2340	858
			2340	859
			2340	860
			2340	861
			2340	862
			2341	863
			2341	864
			2341	865
			2341	866
			2341	867
			2341	868
			2341	869
			2341	870
			2341	871
			2341	872
			2341	873
			2341	874
			2341	875
			2341	876
			2341	877
			2341	878
			2341	879
			2341	880
			2341	881
			2341	882
			2341	883
			2341	884
			2341	885
			2341	886
			2341	887
			2340	888
			2340	889
			2340	890
			2340	891
			2339	892
			2339	893
			2339	894
			2339	895
			2338	896
			2338	897
			2338	898
			2338	899
			2337	899
			2337	900
			2337	901
			2337	902
			2336	903
			2336	904
			2336	905
			2335	905
			2335	906
			2335	907
			2335	908
			2334	908
			2334	909
			2333	910
			2333	911
			2332	912
			2331	913
			2330	914
			2329	915
			2328	916
			2327	917
			2327	918
			2326	918
			2326	919
			2325	919
			2324	920
			2324	921
			2323	921
			2322	922
			2321	923
			2320	924
			2319	925
			2318	926
			2317	927
			2316	927
			2315	928
			2314	928
			2314	929
			2313	929
			2312	930
			2311	930
			2311	931
			2310	931
			2309	932
			2308	933
			2307	933
			2306	933
			2305	933
			2304	934
			2303	934
			2302	934
			2301	934
			2300	935
			2299	935
			2298	935
			2297	935
			2296	935
			2295	936
			2294	936
			2293	936
			2292	936
			2291	936
			2290	936
			2289	937
			2288	937
			2287	937
			2286	937
			2285	937
			2284	937
			2283	937
			2282	937
			2281	937
			2280	937
			2279	938
			2278	938
			2277	938
			2276	938
			2275	939
			2274	939
			2273	939
			2272	940
			2271	940
			2270	941
			2269	942
			2268	942
		</Outline4>
	</curves.pixel>
	<curves.scaled type=list>
		<Outline1 type=matrix rownames=FALSE colnames=FALSE nrow=167 ncol=2 as.numeric=TRUE >
			32.8989462264226	-13.6643771363713
			32.8844405182099	-13.678882844584
			32.8699348099972	-13.6933885527967
			32.8554291017845	-13.7078942610094
			32.8409233935718	-13.7223999692221
			32.8264176853591	-13.7369056774348
			32.8119119771464	-13.7369056774348
			32.7974062689337	-13.7514113856476
			32.782900560721	-13.7659170938603
			32.7683948525083	-13.780422802073
			32.7538891442955	-13.780422802073
			32.7393834360828	-13.7949285102857
			32.7248777278701	-13.8094342184984
			32.7103720196574	-13.8094342184984
			32.6958663114447	-13.8094342184984
			32.6958663114447	-13.8239399267111
			32.681360603232	-13.8239399267111
			32.6668548950193	-13.8384456349238
			32.6523491868066	-13.8384456349238
			32.6523491868066	-13.8529513431365
			32.6378434785939	-13.8529513431365
			32.6233377703812	-13.8674570513492
			32.6088320621685	-13.8674570513492
			32.6088320621685	-13.8819627595619
			32.5943263539558	-13.8819627595619
			32.579820645743	-13.8964684677746
			32.5653149375303	-13.8964684677746
			32.5653149375303	-13.9109741759873
			32.5508092293176	-13.9109741759873
			32.5363035211049	-13.9254798842001
			32.5217978128922	-13.9399855924128
			32.5072921046795	-13.9544913006255
			32.4927863964668	-13.9544913006255
			32.4782806882541	-13.9689970088382
			32.4637749800414	-13.9689970088382
			32.4492692718287	-13.9835027170509
			32.434763563616	-13.9980084252636
			32.4202578554032	-13.9980084252636
			32.4057521471905	-14.0125141334763
			32.3912464389778	-14.027019841689
			32.3767407307651	-14.027019841689
			32.3622350225524	-14.0415255499017
			32.3477293143397	-14.0415255499017
			32.333223606127	-14.0415255499017
			32.3187178979143	-14.0560312581144
			32.3042121897016	-14.0560312581144
			32.2897064814889	-14.0560312581144
			32.2752007732762	-14.0705369663271
			32.2606950650635	-14.0705369663271
			32.2461893568507	-14.0705369663271
			32.231683648638	-14.0705369663271
			32.2171779404253	-14.0850426745398
			32.2026722322126	-14.0850426745398
			32.1881665239999	-14.0850426745398
			32.1736608157872	-14.0850426745398
			32.1591551075745	-14.0850426745398
			32.1446493993618	-14.0995483827526
			32.1301436911491	-14.0995483827526
			32.1156379829364	-14.0995483827526
			32.1011322747237	-14.0995483827526
			32.086626566511	-14.0995483827526
			32.0721208582982	-14.0995483827526
			32.0576151500855	-14.0995483827526
			32.0431094418728	-14.0850426745398
			32.0286037336601	-14.0850426745398
			32.0140980254474	-14.0850426745398
			31.9995923172347	-14.0850426745398
			31.985086609022	-14.0850426745398
			31.9705809008093	-14.0850426745398
			31.9560751925966	-14.0705369663271
			31.9415694843839	-14.0705369663271
			31.9270637761712	-14.0705369663271
			31.9125580679585	-14.0705369663271
			31.8980523597457	-14.0560312581144
			31.883546651533	-14.0560312581144
			31.8690409433203	-14.0560312581144
			31.8545352351076	-14.0560312581144
			31.8400295268949	-14.0415255499017
			31.8255238186822	-14.0415255499017
			31.8110181104695	-14.027019841689
			31.7965124022568	-14.027019841689
			31.7820066940441	-14.0125141334763
			31.7675009858314	-14.0125141334763
			31.7529952776187	-13.9980084252636
			31.738489569406	-13.9980084252636
			31.7239838611933	-13.9835027170509
			31.7094781529805	-13.9835027170509
			31.6949724447678	-13.9835027170509
			31.6804667365551	-13.9689970088382
			31.6659610283424	-13.9544913006255
			31.6514553201297	-13.9399855924128
			31.636949611917	-13.9254798842001
			31.6224439037043	-13.9109741759873
			31.6079381954916	-13.8964684677746
			31.5934324872789	-13.8819627595619
			31.5789267790662	-13.8674570513492
			31.5644210708535	-13.8529513431365
			31.5499153626407	-13.8384456349238
			31.535409654428	-13.8239399267111
			31.5209039462153	-13.8094342184984
			31.5209039462153	-13.7949285102857
			31.5063982380026	-13.780422802073
			31.5063982380026	-13.7659170938603
			31.4918925297899	-13.7659170938603
			31.4918925297899	-13.7514113856476
			31.4773868215772	-13.7369056774348
			31.4773868215772	-13.7223999692221
			31.4628811133645	-13.7078942610094
			31.4628811133645	-13.6933885527967
			31.4483754051518	-13.678882844584
			31.4483754051518	-13.6643771363713
			31.4483754051518	-13.6498714281586
			31.4338696969391	-13.6498714281586
			31.4338696969391	-13.6353657199459
			31.4338696969391	-13.6208600117332
			31.4338696969391	-13.6063543035205
			31.4338696969391	-13.5918485953078
			31.4338696969391	-13.5773428870951
			31.4338696969391	-13.5628371788823
			31.4193639887264	-13.5483314706696
			31.4193639887264	-13.5338257624569
			31.4193639887264	-13.5193200542442
			31.4193639887264	-13.5048143460315
			31.4193639887264	-13.4903086378188
			31.4193639887264	-13.4758029296061
			31.4193639887264	-13.4612972213934
			31.4193639887264	-13.4467915131807
			31.4193639887264	-13.432285804968
			31.4193639887264	-13.4177800967553
			31.4193639887264	-13.4032743885426
			31.4193639887264	-13.3887686803298
			31.4048582805137	-13.3742629721171
			31.4048582805137	-13.3597572639044
			31.4048582805137	-13.3452515556917
			31.4048582805137	-13.330745847479
			31.4048582805137	-13.3162401392663
			31.4048582805137	-13.3017344310536
			31.4048582805137	-13.2872287228409
			31.4048582805137	-13.2727230146282
			31.4048582805137	-13.2582173064155
			31.4048582805137	-13.2437115982028
			31.4048582805137	-13.2292058899901
			31.4048582805137	-13.2147001817773
			31.4048582805137	-13.2001944735646
			31.4048582805137	-13.1856887653519
			31.390352572301	-13.1856887653519
			31.390352572301	-13.1711830571392
			31.390352572301	-13.1566773489265
			31.390352572301	-13.1421716407138
			31.390352572301	-13.1276659325011
			31.390352572301	-13.1131602242884
			31.390352572301	-13.0986545160757
			31.390352572301	-13.084148807863
			31.390352572301	-13.0696430996503
			31.390352572301	-13.0551373914376
			31.3758468640882	-13.0406316832248
			31.3758468640882	-13.0261259750121
			31.3758468640882	-13.0116202667994
			31.3758468640882	-12.9971145585867
			31.3758468640882	-12.982608850374
			31.3758468640882	-12.9681031421613
			31.3758468640882	-12.9535974339486
			31.3758468640882	-12.9390917257359
			31.3613411558755	-12.9245860175232
			31.3613411558755	-12.9100803093105
			31.3613411558755	-12.8955746010978
			31.3613411558755	-12.8810688928851
		</Outline1>
		<Outline2 type=matrix rownames=FALSE colnames=FALSE nrow=135 ncol=2 as.numeric=TRUE >
			31.3613411558755	-12.8810688928851
			31.3613411558755	-12.8665631846723
			31.3613411558755	-12.8520574764596
			31.3613411558755	-12.8375517682469
			31.3613411558755	-12.8230460600342
			31.3613411558755	-12.8085403518215
			31.3613411558755	-12.7940346436088
			31.3613411558755	-12.7795289353961
			31.3613411558755	-12.7650232271834
			31.3613411558755	-12.7505175189707
			31.3613411558755	-12.736011810758
			31.3613411558755	-12.7215061025453
			31.3613411558755	-12.7070003943325
			31.3613411558755	-12.6924946861198
			31.3613411558755	-12.6779889779071
			31.3613411558755	-12.6634832696944
			31.3613411558755	-12.6489775614817
			31.3613411558755	-12.634471853269
			31.3613411558755	-12.6199661450563
			31.3613411558755	-12.6054604368436
			31.3613411558755	-12.5909547286309
			31.3613411558755	-12.5764490204182
			31.3613411558755	-12.5619433122055
			31.3613411558755	-12.5474376039928
			31.3758468640882	-12.53293189578
			31.3758468640882	-12.5184261875673
			31.3758468640882	-12.5039204793546
			31.3758468640882	-12.4894147711419
			31.390352572301	-12.4749090629292
			31.390352572301	-12.4604033547165
			31.390352572301	-12.4458976465038
			31.390352572301	-12.4313919382911
			31.4048582805137	-12.4168862300784
			31.4048582805137	-12.4023805218657
			31.4048582805137	-12.387874813653
			31.4193639887264	-12.3733691054403
			31.4193639887264	-12.3588633972275
			31.4338696969391	-12.3443576890148
			31.4338696969391	-12.3298519808021
			31.4338696969391	-12.3153462725894
			31.4483754051518	-12.3153462725894
			31.4483754051518	-12.3008405643767
			31.4483754051518	-12.286334856164
			31.4628811133645	-12.2718291479513
			31.4628811133645	-12.2573234397386
			31.4628811133645	-12.2428177315259
			31.4773868215772	-12.2428177315259
			31.4773868215772	-12.2283120233132
			31.4773868215772	-12.2138063151005
			31.4773868215772	-12.1993006068878
			31.4918925297899	-12.184794898675
			31.4918925297899	-12.1702891904623
			31.4918925297899	-12.1557834822496
			31.5063982380026	-12.1412777740369
			31.5063982380026	-12.1267720658242
			31.5063982380026	-12.1122663576115
			31.5209039462153	-12.0977606493988
			31.5209039462153	-12.0832549411861
			31.5209039462153	-12.0687492329734
			31.5209039462153	-12.0542435247607
			31.5209039462153	-12.039737816548
			31.535409654428	-12.0252321083353
			31.535409654428	-12.0107264001225
			31.535409654428	-11.9962206919098
			31.535409654428	-11.9817149836971
			31.535409654428	-11.9672092754844
			31.5499153626407	-11.9527035672717
			31.5499153626407	-11.938197859059
			31.5499153626407	-11.9236921508463
			31.5499153626407	-11.9091864426336
			31.5644210708535	-11.8946807344209
			31.5644210708535	-11.8801750262082
			31.5644210708535	-11.8656693179955
			31.5644210708535	-11.8511636097828
			31.5644210708535	-11.83665790157
			31.5789267790662	-11.8221521933573
			31.5789267790662	-11.8076464851446
			31.5789267790662	-11.7931407769319
			31.5934324872789	-11.7786350687192
			31.5934324872789	-11.7641293605065
			31.6079381954916	-11.7496236522938
			31.6079381954916	-11.7351179440811
			31.6079381954916	-11.7206122358684
			31.6224439037043	-11.7061065276557
			31.636949611917	-11.691600819443
			31.6514553201297	-11.6770951112303
			31.6514553201297	-11.6625894030175
			31.6659610283424	-11.6480836948048
			31.6804667365551	-11.6335779865921
			31.6949724447678	-11.6190722783794
			31.7094781529805	-11.6045665701667
			31.7239838611933	-11.590060861954
			31.738489569406	-11.5755551537413
			31.7529952776187	-11.5755551537413
			31.7675009858314	-11.5755551537413
			31.7820066940441	-11.5610494455286
			31.7965124022568	-11.5610494455286
			31.8110181104695	-11.5465437373159
			31.8255238186822	-11.5465437373159
			31.8400295268949	-11.5465437373159
			31.8545352351076	-11.5320380291032
			31.8690409433203	-11.5320380291032
			31.883546651533	-11.5320380291032
			31.8980523597457	-11.5175323208905
			31.9125580679585	-11.5175323208905
			31.9270637761712	-11.5175323208905
			31.9415694843839	-11.5175323208905
			31.9560751925966	-11.5030266126778
			31.9705809008093	-11.5030266126778
			31.985086609022	-11.5030266126778
			31.9995923172347	-11.5030266126778
			32.0140980254474	-11.5030266126778
			32.0286037336601	-11.488520904465
			32.0431094418728	-11.488520904465
			32.0576151500855	-11.488520904465
			32.0721208582982	-11.488520904465
			32.086626566511	-11.488520904465
			32.1011322747237	-11.488520904465
			32.1156379829364	-11.488520904465
			32.1301436911491	-11.488520904465
			32.1446493993618	-11.488520904465
			32.1591551075745	-11.4740151962523
			32.1736608157872	-11.4740151962523
			32.1881665239999	-11.4740151962523
			32.2026722322126	-11.4740151962523
			32.2171779404253	-11.4740151962523
			32.231683648638	-11.4740151962523
			32.2461893568507	-11.4740151962523
			32.2606950650635	-11.4740151962523
			32.2752007732762	-11.4740151962523
			32.2897064814889	-11.4740151962523
			32.3042121897016	-11.4740151962523
			32.3187178979143	-11.4740151962523
			32.333223606127	-11.4740151962523
			32.3477293143397	-11.4740151962523
		</Outline2>
		<Outline3 type=matrix rownames=FALSE colnames=FALSE nrow=128 ncol=2 as.numeric=TRUE >
			32.3477293143397	-11.4740151962523
			32.3622350225524	-11.4740151962523
			32.3767407307651	-11.4740151962523
			32.3912464389778	-11.4740151962523
			32.4057521471905	-11.4740151962523
			32.4202578554032	-11.4740151962523
			32.434763563616	-11.4740151962523
			32.4492692718287	-11.488520904465
			32.4637749800414	-11.488520904465
			32.4782806882541	-11.488520904465
			32.4927863964668	-11.488520904465
			32.5072921046795	-11.488520904465
			32.5217978128922	-11.488520904465
			32.5363035211049	-11.488520904465
			32.5508092293176	-11.488520904465
			32.5653149375303	-11.488520904465
			32.579820645743	-11.488520904465
			32.5943263539558	-11.488520904465
			32.6088320621685	-11.488520904465
			32.6233377703812	-11.488520904465
			32.6378434785939	-11.488520904465
			32.6523491868066	-11.488520904465
			32.6668548950193	-11.488520904465
			32.681360603232	-11.488520904465
			32.6958663114447	-11.488520904465
			32.7103720196574	-11.488520904465
			32.7248777278701	-11.488520904465
			32.7393834360828	-11.488520904465
			32.7538891442955	-11.4740151962523
			32.7683948525083	-11.4740151962523
			32.782900560721	-11.4740151962523
			32.7974062689337	-11.4740151962523
			32.8119119771464	-11.4740151962523
			32.8264176853591	-11.4740151962523
			32.8409233935718	-11.4740151962523
			32.8554291017845	-11.4740151962523
			32.8699348099972	-11.4740151962523
			32.8844405182099	-11.4740151962523
			32.8989462264226	-11.4740151962523
			32.9134519346353	-11.4740151962523
			32.927957642848	-11.4740151962523
			32.9424633510608	-11.4740151962523
			32.9569690592735	-11.4740151962523
			32.9714747674862	-11.4740151962523
			32.9859804756989	-11.4740151962523
			33.0004861839116	-11.4740151962523
			33.0149918921243	-11.4740151962523
			33.029497600337	-11.488520904465
			33.0440033085497	-11.488520904465
			33.0585090167624	-11.488520904465
			33.0730147249751	-11.488520904465
			33.0875204331878	-11.488520904465
			33.1020261414005	-11.488520904465
			33.1165318496133	-11.5030266126778
			33.131037557826	-11.5030266126778
			33.1455432660387	-11.5030266126778
			33.1600489742514	-11.5030266126778
			33.1745546824641	-11.5030266126778
			33.1890603906768	-11.5175323208905
			33.2035660988895	-11.5175323208905
			33.2180718071022	-11.5175323208905
			33.2325775153149	-11.5175323208905
			33.2470832235276	-11.5175323208905
			33.2615889317403	-11.5320380291032
			33.276094639953	-11.5320380291032
			33.2906003481658	-11.5320380291032
			33.3051060563785	-11.5320380291032
			33.3196117645912	-11.5465437373159
			33.3341174728039	-11.5465437373159
			33.3486231810166	-11.5465437373159
			33.3631288892293	-11.5465437373159
			33.377634597442	-11.5610494455286
			33.3921403056547	-11.5610494455286
			33.4066460138674	-11.5755551537413
			33.4211517220801	-11.5755551537413
			33.4356574302928	-11.5755551537413
			33.4501631385055	-11.590060861954
			33.4646688467183	-11.590060861954
			33.479174554931	-11.6045665701667
			33.4936802631437	-11.6045665701667
			33.5081859713564	-11.6190722783794
			33.5226916795691	-11.6190722783794
			33.5371973877818	-11.6335779865921
			33.5517030959945	-11.6480836948048
			33.5662088042072	-11.6625894030175
			33.5807145124199	-11.6770951112303
			33.5952202206326	-11.691600819443
			33.6097259288453	-11.7061065276557
			33.624231637058	-11.7206122358684
			33.624231637058	-11.7351179440811
			33.6387373452708	-11.7496236522938
			33.6532430534835	-11.7641293605065
			33.6677487616962	-11.7786350687192
			33.6822544699089	-11.7931407769319
			33.6822544699089	-11.8076464851446
			33.6967601781216	-11.8221521933573
			33.7112658863343	-11.83665790157
			33.725771594547	-11.8511636097828
			33.725771594547	-11.8656693179955
			33.7402773027597	-11.8801750262082
			33.7547830109724	-11.8946807344209
			33.7547830109724	-11.9091864426336
			33.7692887191851	-11.9236921508463
			33.7837944273978	-11.938197859059
			33.7837944273978	-11.9527035672717
			33.7983001356105	-11.9672092754844
			33.8128058438233	-11.9817149836971
			33.8128058438233	-11.9962206919098
			33.827311552036	-12.0107264001225
			33.827311552036	-12.0252321083353
			33.8418172602487	-12.039737816548
			33.8418172602487	-12.0542435247607
			33.8418172602487	-12.0687492329734
			33.8418172602487	-12.0832549411861
			33.8418172602487	-12.0977606493988
			33.8563229684614	-12.1122663576115
			33.8563229684614	-12.1267720658242
			33.8563229684614	-12.1412777740369
			33.8563229684614	-12.1557834822496
			33.8563229684614	-12.1702891904623
			33.8563229684614	-12.184794898675
			33.8708286766741	-12.1993006068878
			33.8708286766741	-12.2138063151005
			33.8708286766741	-12.2283120233132
			33.8853343848868	-12.2428177315259
			33.8853343848868	-12.2573234397386
			33.8853343848868	-12.2718291479513
			33.8853343848868	-12.286334856164
		</Outline3>
		<Outline4 type=matrix rownames=FALSE colnames=FALSE nrow=140 ncol=2 as.numeric=TRUE >
			33.8853343848868	-12.286334856164
			33.8853343848868	-12.3008405643767
			33.8998400930995	-12.3008405643767
			33.8998400930995	-12.3153462725894
			33.8998400930995	-12.3298519808021
			33.8998400930995	-12.3443576890148
			33.9143458013122	-12.3588633972275
			33.9143458013122	-12.3733691054403
			33.9288515095249	-12.387874813653
			33.9288515095249	-12.4023805218657
			33.9288515095249	-12.4168862300784
			33.9288515095249	-12.4313919382911
			33.9288515095249	-12.4458976465038
			33.9433572177376	-12.4458976465038
			33.9433572177376	-12.4604033547165
			33.9433572177376	-12.4749090629292
			33.9433572177376	-12.4894147711419
			33.9433572177376	-12.5039204793546
			33.9578629259503	-12.5184261875673
			33.9578629259503	-12.53293189578
			33.9578629259503	-12.5474376039928
			33.9578629259503	-12.5619433122055
			33.9578629259503	-12.5764490204182
			33.9578629259503	-12.5909547286309
			33.9578629259503	-12.6054604368436
			33.9578629259503	-12.6199661450563
			33.9578629259503	-12.634471853269
			33.9578629259503	-12.6489775614817
			33.9578629259503	-12.6634832696944
			33.9578629259503	-12.6779889779071
			33.9578629259503	-12.6924946861198
			33.9578629259503	-12.7070003943325
			33.9578629259503	-12.7215061025453
			33.9578629259503	-12.736011810758
			33.9578629259503	-12.7505175189707
			33.9578629259503	-12.7650232271834
			33.9578629259503	-12.7795289353961
			33.9578629259503	-12.7940346436088
			33.9578629259503	-12.8085403518215
			33.9578629259503	-12.8230460600342
			33.9578629259503	-12.8375517682469
			33.9578629259503	-12.8520574764596
			33.9578629259503	-12.8665631846723
			33.9433572177376	-12.8810688928851
			33.9433572177376	-12.8955746010978
			33.9433572177376	-12.9100803093105
			33.9433572177376	-12.9245860175232
			33.9288515095249	-12.9390917257359
			33.9288515095249	-12.9535974339486
			33.9288515095249	-12.9681031421613
			33.9288515095249	-12.982608850374
			33.9143458013122	-12.9971145585867
			33.9143458013122	-13.0116202667994
			33.9143458013122	-13.0261259750121
			33.9143458013122	-13.0406316832248
			33.8998400930995	-13.0406316832248
			33.8998400930995	-13.0551373914376
			33.8998400930995	-13.0696430996503
			33.8998400930995	-13.084148807863
			33.8853343848868	-13.0986545160757
			33.8853343848868	-13.1131602242884
			33.8853343848868	-13.1276659325011
			33.8708286766741	-13.1276659325011
			33.8708286766741	-13.1421716407138
			33.8708286766741	-13.1566773489265
			33.8708286766741	-13.1711830571392
			33.8563229684614	-13.1711830571392
			33.8563229684614	-13.1856887653519
			33.8418172602487	-13.2001944735646
			33.8418172602487	-13.2147001817773
			33.827311552036	-13.2292058899901
			33.8128058438233	-13.2437115982028
			33.7983001356105	-13.2582173064155
			33.7837944273978	-13.2727230146282
			33.7692887191851	-13.2872287228409
			33.7547830109724	-13.3017344310536
			33.7547830109724	-13.3162401392663
			33.7402773027597	-13.3162401392663
			33.7402773027597	-13.330745847479
			33.725771594547	-13.330745847479
			33.7112658863343	-13.3452515556917
			33.7112658863343	-13.3597572639044
			33.6967601781216	-13.3597572639044
			33.6822544699089	-13.3742629721171
			33.6677487616962	-13.3887686803298
			33.6532430534835	-13.4032743885426
			33.6387373452708	-13.4177800967553
			33.624231637058	-13.432285804968
			33.6097259288453	-13.4467915131807
			33.5952202206326	-13.4467915131807
			33.5807145124199	-13.4612972213934
			33.5662088042072	-13.4612972213934
			33.5662088042072	-13.4758029296061
			33.5517030959945	-13.4758029296061
			33.5371973877818	-13.4903086378188
			33.5226916795691	-13.4903086378188
			33.5226916795691	-13.5048143460315
			33.5081859713564	-13.5048143460315
			33.4936802631437	-13.5193200542442
			33.479174554931	-13.5338257624569
			33.4646688467183	-13.5338257624569
			33.4501631385055	-13.5338257624569
			33.4356574302928	-13.5338257624569
			33.4211517220801	-13.5483314706696
			33.4066460138674	-13.5483314706696
			33.3921403056547	-13.5483314706696
			33.377634597442	-13.5483314706696
			33.3631288892293	-13.5628371788823
			33.3486231810166	-13.5628371788823
			33.3341174728039	-13.5628371788823
			33.3196117645912	-13.5628371788823
			33.3051060563785	-13.5628371788823
			33.2906003481658	-13.5773428870951
			33.276094639953	-13.5773428870951
			33.2615889317403	-13.5773428870951
			33.2470832235276	-13.5773428870951
			33.2325775153149	-13.5773428870951
			33.2180718071022	-13.5773428870951
			33.2035660988895	-13.5918485953078
			33.1890603906768	-13.5918485953078
			33.1745546824641	-13.5918485953078
			33.1600489742514	-13.5918485953078
			33.1455432660387	-13.5918485953078
			33.131037557826	-13.5918485953078
			33.1165318496133	-13.5918485953078
			33.1020261414005	-13.5918485953078
			33.0875204331878	-13.5918485953078
			33.0730147249751	-13.5918485953078
			33.0585090167624	-13.6063543035205
			33.0440033085497	-13.6063543035205
			33.029497600337	-13.6063543035205
			33.0149918921243	-13.6063543035205
			33.0004861839116	-13.6208600117332
			32.9859804756989	-13.6208600117332
			32.9714747674862	-13.6208600117332
			32.9569690592735	-13.6353657199459
			32.9424633510608	-13.6353657199459
			32.927957642848	-13.6498714281586
			32.9134519346353	-13.6643771363713
			32.8989462264226	-13.6643771363713
		</Outline4>
	</curves.scaled>
	<ruler.points type=matrix rownames=TRUE colnames=FALSE nrow=2 ncol=2 as.numeric=TRUE >
		Ruler point 1	2805	2212
		Ruler point 2	2116	2235
	</ruler.points>
</shapes>

