<shapes type=list>
	<ruler.pixel type=vector names=FALSE length=1 as.numeric=TRUE >1952.05020427242</ruler.pixel>
	<ruler.interval type=vector names=FALSE length=1 as.numeric=TRUE >10</ruler.interval>
	<scaling.units type=vector names=FALSE length=1 as.numeric=FALSE >mm</scaling.units>
	<scaling type=vector names=FALSE length=1 as.numeric=TRUE >0.00512281906383</scaling>
	<landmarks.pixel type=matrix rownames=TRUE colnames=FALSE nrow=4 ncol=2 as.numeric=TRUE >
		Labial	2426	1188
		Posterior	2381	1136
		Lingual	2430	1088
		Anterior	2479	1141
	</landmarks.pixel>
	<landmarks.scaled type=matrix rownames=TRUE colnames=FALSE nrow=4 ncol=2 as.numeric=TRUE >
		Labial	12.4279590488516	-6.08590904783004
		Posterior	12.1974321909792	-5.81952245651088
		Lingual	12.4484503251069	-5.57362714144704
		Anterior	12.6994684592346	-5.84513655183003
	</landmarks.scaled>
	<curves.control type=list>
		<Outline1 type=matrix rownames=FALSE colnames=FALSE nrow=11 ncol=2 as.numeric=TRUE >
			2426	1188
			2419	1188
			2412	1186
			2405	1185
			2398	1181
			2393	1176
			2389	1171
			2385	1166
			2382	1158
			2380	1148
			2381	1136
		</Outline1>
		<Outline2 type=matrix rownames=FALSE colnames=FALSE nrow=13 ncol=2 as.numeric=TRUE >
			2381	1136
			2382	1128
			2385	1119
			2388	1113
			2391	1107
			2395	1101
			2400	1096
			2406	1092
			2411	1090
			2417	1088
			2422	1087
			2426	1087
			2430	1088
		</Outline2>
		<Outline3 type=matrix rownames=FALSE colnames=FALSE nrow=13 ncol=2 as.numeric=TRUE >
			2430	1088
			2436	1090
			2442	1092
			2448	1095
			2453	1099
			2458	1104
			2462	1109
			2466	1114
			2469	1118
			2474	1125
			2476	1131
			2478	1136
			2479	1141
		</Outline3>
		<Outline4 type=matrix rownames=FALSE colnames=FALSE nrow=13 ncol=2 as.numeric=TRUE >
			2479	1141
			2480	1147
			2479	1153
			2477	1159
			2474	1165
			2471	1170
			2466	1175
			2461	1179
			2455	1182
			2450	1184
			2444	1186
			2439	1187
			2426	1188
		</Outline4>
	</curves.control>
	<curves.pixel type=list>
		<Outline1 type=matrix rownames=FALSE colnames=FALSE nrow=75 ncol=2 as.numeric=TRUE >
			2426	1188
			2425	1188
			2424	1188
			2423	1188
			2422	1188
			2421	1188
			2420	1188
			2419	1187
			2418	1187
			2417	1187
			2416	1187
			2415	1187
			2414	1186
			2413	1186
			2412	1186
			2411	1186
			2410	1186
			2409	1185
			2408	1185
			2407	1185
			2406	1185
			2405	1184
			2404	1184
			2403	1183
			2402	1183
			2401	1183
			2400	1182
			2399	1182
			2398	1181
			2397	1180
			2396	1179
			2395	1178
			2394	1177
			2393	1176
			2392	1175
			2392	1174
			2391	1173
			2390	1172
			2389	1171
			2389	1170
			2388	1169
			2387	1168
			2386	1167
			2386	1166
			2385	1165
			2384	1164
			2384	1163
			2384	1162
			2383	1161
			2383	1160
			2383	1159
			2382	1159
			2382	1158
			2382	1157
			2382	1156
			2381	1155
			2381	1154
			2381	1153
			2381	1152
			2381	1151
			2381	1150
			2381	1149
			2381	1148
			2381	1147
			2381	1146
			2381	1145
			2381	1144
			2381	1143
			2381	1142
			2381	1141
			2381	1140
			2381	1139
			2381	1138
			2381	1137
			2381	1136
		</Outline1>
		<Outline2 type=matrix rownames=FALSE colnames=FALSE nrow=75 ncol=2 as.numeric=TRUE >
			2381	1136
			2381	1135
			2381	1134
			2381	1133
			2382	1132
			2382	1131
			2382	1130
			2382	1129
			2382	1128
			2383	1127
			2383	1126
			2383	1125
			2383	1124
			2384	1123
			2384	1122
			2384	1121
			2385	1120
			2385	1119
			2386	1118
			2386	1117
			2387	1116
			2387	1115
			2387	1114
			2388	1113
			2388	1112
			2389	1112
			2389	1111
			2389	1110
			2390	1109
			2390	1108
			2391	1108
			2391	1107
			2392	1106
			2392	1105
			2393	1104
			2394	1103
			2395	1102
			2395	1101
			2396	1100
			2397	1099
			2398	1099
			2398	1098
			2399	1097
			2400	1096
			2401	1095
			2402	1095
			2403	1094
			2404	1094
			2405	1093
			2406	1092
			2407	1092
			2408	1091
			2409	1091
			2410	1090
			2411	1090
			2412	1090
			2413	1089
			2414	1089
			2415	1089
			2416	1088
			2417	1088
			2418	1088
			2419	1088
			2420	1088
			2420	1087
			2421	1087
			2422	1087
			2423	1087
			2424	1087
			2425	1087
			2426	1087
			2427	1087
			2428	1088
			2429	1088
			2430	1088
		</Outline2>
		<Outline3 type=matrix rownames=FALSE colnames=FALSE nrow=74 ncol=2 as.numeric=TRUE >
			2430	1088
			2431	1088
			2432	1089
			2433	1089
			2434	1089
			2435	1090
			2436	1090
			2437	1090
			2438	1091
			2439	1091
			2440	1091
			2441	1092
			2442	1092
			2443	1093
			2444	1093
			2445	1094
			2446	1094
			2447	1095
			2448	1095
			2448	1096
			2449	1096
			2450	1097
			2451	1097
			2451	1098
			2452	1098
			2453	1099
			2454	1100
			2455	1101
			2456	1102
			2457	1103
			2458	1104
			2458	1105
			2459	1105
			2460	1106
			2460	1107
			2461	1108
			2462	1109
			2462	1110
			2463	1110
			2464	1111
			2464	1112
			2465	1113
			2466	1113
			2466	1114
			2467	1115
			2467	1116
			2468	1116
			2468	1117
			2469	1118
			2469	1119
			2470	1120
			2471	1121
			2472	1122
			2472	1123
			2473	1124
			2473	1125
			2474	1126
			2475	1127
			2475	1128
			2475	1129
			2476	1130
			2476	1131
			2476	1132
			2477	1133
			2477	1134
			2477	1135
			2478	1135
			2478	1136
			2478	1137
			2478	1138
			2478	1139
			2479	1139
			2479	1140
			2479	1141
		</Outline3>
		<Outline4 type=matrix rownames=FALSE colnames=FALSE nrow=76 ncol=2 as.numeric=TRUE >
			2479	1141
			2479	1142
			2479	1143
			2479	1144
			2479	1145
			2479	1146
			2479	1147
			2479	1148
			2479	1149
			2479	1150
			2479	1151
			2479	1152
			2479	1153
			2479	1154
			2478	1155
			2478	1156
			2478	1157
			2477	1158
			2477	1159
			2476	1160
			2476	1161
			2476	1162
			2475	1163
			2475	1164
			2474	1165
			2473	1166
			2473	1167
			2472	1168
			2471	1169
			2471	1170
			2470	1171
			2469	1172
			2468	1173
			2467	1174
			2466	1175
			2465	1176
			2464	1177
			2463	1177
			2462	1178
			2461	1179
			2460	1179
			2459	1180
			2458	1180
			2457	1181
			2456	1181
			2455	1182
			2454	1182
			2453	1183
			2452	1183
			2451	1184
			2450	1184
			2449	1184
			2448	1185
			2447	1185
			2446	1185
			2445	1186
			2444	1186
			2443	1186
			2442	1186
			2441	1186
			2440	1187
			2439	1187
			2438	1187
			2437	1187
			2436	1187
			2435	1187
			2434	1187
			2433	1187
			2432	1187
			2432	1188
			2431	1188
			2430	1188
			2429	1188
			2428	1188
			2427	1188
			2426	1188
		</Outline4>
	</curves.pixel>
	<curves.scaled type=list>
		<Outline1 type=matrix rownames=FALSE colnames=FALSE nrow=75 ncol=2 as.numeric=TRUE >
			12.4279590488516	-6.08590904783004
			12.4228362297877	-6.08590904783004
			12.4177134107239	-6.08590904783004
			12.4125905916601	-6.08590904783004
			12.4074677725963	-6.08590904783004
			12.4023449535324	-6.08590904783004
			12.3972221344686	-6.08590904783004
			12.3920993154048	-6.08078622876621
			12.3869764963409	-6.08078622876621
			12.3818536772771	-6.08078622876621
			12.3767308582133	-6.08078622876621
			12.3716080391494	-6.08078622876621
			12.3664852200856	-6.07566340970238
			12.3613624010218	-6.07566340970238
			12.356239581958	-6.07566340970238
			12.3511167628941	-6.07566340970238
			12.3459939438303	-6.07566340970238
			12.3408711247665	-6.07054059063855
			12.3357483057026	-6.07054059063855
			12.3306254866388	-6.07054059063855
			12.325502667575	-6.07054059063855
			12.3203798485111	-6.06541777157472
			12.3152570294473	-6.06541777157472
			12.3101342103835	-6.06029495251089
			12.3050113913197	-6.06029495251089
			12.2998885722558	-6.06029495251089
			12.294765753192	-6.05517213344706
			12.2896429341282	-6.05517213344706
			12.2845201150643	-6.05004931438323
			12.2793972960005	-6.0449264953194
			12.2742744769367	-6.03980367625557
			12.2691516578728	-6.03468085719174
			12.264028838809	-6.02955803812791
			12.2589060197452	-6.02443521906408
			12.2537832006814	-6.01931240000025
			12.2537832006814	-6.01418958093642
			12.2486603816175	-6.00906676187259
			12.2435375625537	-6.00394394280876
			12.2384147434899	-5.99882112374493
			12.2384147434899	-5.9936983046811
			12.233291924426	-5.98857548561727
			12.2281691053622	-5.98345266655344
			12.2230462862984	-5.97832984748961
			12.2230462862984	-5.97320702842578
			12.2179234672345	-5.96808420936195
			12.2128006481707	-5.96296139029812
			12.2128006481707	-5.95783857123429
			12.2128006481707	-5.95271575217046
			12.2076778291069	-5.94759293310663
			12.2076778291069	-5.9424701140428
			12.2076778291069	-5.93734729497897
			12.2025550100431	-5.93734729497897
			12.2025550100431	-5.93222447591514
			12.2025550100431	-5.92710165685131
			12.2025550100431	-5.92197883778748
			12.1974321909792	-5.91685601872365
			12.1974321909792	-5.91173319965982
			12.1974321909792	-5.90661038059599
			12.1974321909792	-5.90148756153216
			12.1974321909792	-5.89636474246833
			12.1974321909792	-5.8912419234045
			12.1974321909792	-5.88611910434067
			12.1974321909792	-5.88099628527684
			12.1974321909792	-5.87587346621301
			12.1974321909792	-5.87075064714918
			12.1974321909792	-5.86562782808535
			12.1974321909792	-5.86050500902152
			12.1974321909792	-5.85538218995769
			12.1974321909792	-5.85025937089386
			12.1974321909792	-5.84513655183003
			12.1974321909792	-5.8400137327662
			12.1974321909792	-5.83489091370237
			12.1974321909792	-5.82976809463854
			12.1974321909792	-5.82464527557471
			12.1974321909792	-5.81952245651088
		</Outline1>
		<Outline2 type=matrix rownames=FALSE colnames=FALSE nrow=75 ncol=2 as.numeric=TRUE >
			12.1974321909792	-5.81952245651088
			12.1974321909792	-5.81439963744705
			12.1974321909792	-5.80927681838322
			12.1974321909792	-5.80415399931939
			12.2025550100431	-5.79903118025556
			12.2025550100431	-5.79390836119173
			12.2025550100431	-5.7887855421279
			12.2025550100431	-5.78366272306407
			12.2025550100431	-5.77853990400024
			12.2076778291069	-5.77341708493641
			12.2076778291069	-5.76829426587258
			12.2076778291069	-5.76317144680875
			12.2076778291069	-5.75804862774492
			12.2128006481707	-5.75292580868109
			12.2128006481707	-5.74780298961726
			12.2128006481707	-5.74268017055343
			12.2179234672345	-5.7375573514896
			12.2179234672345	-5.73243453242577
			12.2230462862984	-5.72731171336194
			12.2230462862984	-5.72218889429811
			12.2281691053622	-5.71706607523428
			12.2281691053622	-5.71194325617045
			12.2281691053622	-5.70682043710662
			12.233291924426	-5.70169761804279
			12.233291924426	-5.69657479897896
			12.2384147434899	-5.69657479897896
			12.2384147434899	-5.69145197991513
			12.2384147434899	-5.6863291608513
			12.2435375625537	-5.68120634178747
			12.2435375625537	-5.67608352272364
			12.2486603816175	-5.67608352272364
			12.2486603816175	-5.67096070365981
			12.2537832006814	-5.66583788459598
			12.2537832006814	-5.66071506553215
			12.2589060197452	-5.65559224646832
			12.264028838809	-5.65046942740449
			12.2691516578728	-5.64534660834066
			12.2691516578728	-5.64022378927683
			12.2742744769367	-5.635100970213
			12.2793972960005	-5.62997815114917
			12.2845201150643	-5.62997815114917
			12.2845201150643	-5.62485533208534
			12.2896429341282	-5.61973251302151
			12.294765753192	-5.61460969395768
			12.2998885722558	-5.60948687489385
			12.3050113913197	-5.60948687489385
			12.3101342103835	-5.60436405583002
			12.3152570294473	-5.60436405583002
			12.3203798485111	-5.59924123676619
			12.325502667575	-5.59411841770236
			12.3306254866388	-5.59411841770236
			12.3357483057026	-5.58899559863853
			12.3408711247665	-5.58899559863853
			12.3459939438303	-5.5838727795747
			12.3511167628941	-5.5838727795747
			12.356239581958	-5.5838727795747
			12.3613624010218	-5.57874996051087
			12.3664852200856	-5.57874996051087
			12.3716080391494	-5.57874996051087
			12.3767308582133	-5.57362714144704
			12.3818536772771	-5.57362714144704
			12.3869764963409	-5.57362714144704
			12.3920993154048	-5.57362714144704
			12.3972221344686	-5.57362714144704
			12.3972221344686	-5.56850432238321
			12.4023449535324	-5.56850432238321
			12.4074677725963	-5.56850432238321
			12.4125905916601	-5.56850432238321
			12.4177134107239	-5.56850432238321
			12.4228362297877	-5.56850432238321
			12.4279590488516	-5.56850432238321
			12.4330818679154	-5.56850432238321
			12.4382046869792	-5.57362714144704
			12.4433275060431	-5.57362714144704
			12.4484503251069	-5.57362714144704
		</Outline2>
		<Outline3 type=matrix rownames=FALSE colnames=FALSE nrow=74 ncol=2 as.numeric=TRUE >
			12.4484503251069	-5.57362714144704
			12.4535731441707	-5.57362714144704
			12.4586959632346	-5.57874996051087
			12.4638187822984	-5.57874996051087
			12.4689416013622	-5.57874996051087
			12.474064420426	-5.5838727795747
			12.4791872394899	-5.5838727795747
			12.4843100585537	-5.5838727795747
			12.4894328776175	-5.58899559863853
			12.4945556966814	-5.58899559863853
			12.4996785157452	-5.58899559863853
			12.504801334809	-5.59411841770236
			12.5099241538729	-5.59411841770236
			12.5150469729367	-5.59924123676619
			12.5201697920005	-5.59924123676619
			12.5252926110643	-5.60436405583002
			12.5304154301282	-5.60436405583002
			12.535538249192	-5.60948687489385
			12.5406610682558	-5.60948687489385
			12.5406610682558	-5.61460969395768
			12.5457838873197	-5.61460969395768
			12.5509067063835	-5.61973251302151
			12.5560295254473	-5.61973251302151
			12.5560295254473	-5.62485533208534
			12.5611523445112	-5.62485533208534
			12.566275163575	-5.62997815114917
			12.5713979826388	-5.635100970213
			12.5765208017026	-5.64022378927683
			12.5816436207665	-5.64534660834066
			12.5867664398303	-5.65046942740449
			12.5918892588941	-5.65559224646832
			12.5918892588941	-5.66071506553215
			12.597012077958	-5.66071506553215
			12.6021348970218	-5.66583788459598
			12.6021348970218	-5.67096070365981
			12.6072577160856	-5.67608352272364
			12.6123805351495	-5.68120634178747
			12.6123805351495	-5.6863291608513
			12.6175033542133	-5.6863291608513
			12.6226261732771	-5.69145197991513
			12.6226261732771	-5.69657479897896
			12.6277489923409	-5.70169761804279
			12.6328718114048	-5.70169761804279
			12.6328718114048	-5.70682043710662
			12.6379946304686	-5.71194325617045
			12.6379946304686	-5.71706607523428
			12.6431174495324	-5.71706607523428
			12.6431174495324	-5.72218889429811
			12.6482402685963	-5.72731171336194
			12.6482402685963	-5.73243453242577
			12.6533630876601	-5.7375573514896
			12.6584859067239	-5.74268017055343
			12.6636087257878	-5.74780298961726
			12.6636087257878	-5.75292580868109
			12.6687315448516	-5.75804862774492
			12.6687315448516	-5.76317144680875
			12.6738543639154	-5.76829426587258
			12.6789771829792	-5.77341708493641
			12.6789771829792	-5.77853990400024
			12.6789771829792	-5.78366272306407
			12.6841000020431	-5.7887855421279
			12.6841000020431	-5.79390836119173
			12.6841000020431	-5.79903118025556
			12.6892228211069	-5.80415399931939
			12.6892228211069	-5.80927681838322
			12.6892228211069	-5.81439963744705
			12.6943456401707	-5.81439963744705
			12.6943456401707	-5.81952245651088
			12.6943456401707	-5.82464527557471
			12.6943456401707	-5.82976809463854
			12.6943456401707	-5.83489091370237
			12.6994684592346	-5.83489091370237
			12.6994684592346	-5.8400137327662
			12.6994684592346	-5.84513655183003
		</Outline3>
		<Outline4 type=matrix rownames=FALSE colnames=FALSE nrow=76 ncol=2 as.numeric=TRUE >
			12.6994684592346	-5.84513655183003
			12.6994684592346	-5.85025937089386
			12.6994684592346	-5.85538218995769
			12.6994684592346	-5.86050500902152
			12.6994684592346	-5.86562782808535
			12.6994684592346	-5.87075064714918
			12.6994684592346	-5.87587346621301
			12.6994684592346	-5.88099628527684
			12.6994684592346	-5.88611910434067
			12.6994684592346	-5.8912419234045
			12.6994684592346	-5.89636474246833
			12.6994684592346	-5.90148756153216
			12.6994684592346	-5.90661038059599
			12.6994684592346	-5.91173319965982
			12.6943456401707	-5.91685601872365
			12.6943456401707	-5.92197883778748
			12.6943456401707	-5.92710165685131
			12.6892228211069	-5.93222447591514
			12.6892228211069	-5.93734729497897
			12.6841000020431	-5.9424701140428
			12.6841000020431	-5.94759293310663
			12.6841000020431	-5.95271575217046
			12.6789771829792	-5.95783857123429
			12.6789771829792	-5.96296139029812
			12.6738543639154	-5.96808420936195
			12.6687315448516	-5.97320702842578
			12.6687315448516	-5.97832984748961
			12.6636087257878	-5.98345266655344
			12.6584859067239	-5.98857548561727
			12.6584859067239	-5.9936983046811
			12.6533630876601	-5.99882112374493
			12.6482402685963	-6.00394394280876
			12.6431174495324	-6.00906676187259
			12.6379946304686	-6.01418958093642
			12.6328718114048	-6.01931240000025
			12.6277489923409	-6.02443521906408
			12.6226261732771	-6.02955803812791
			12.6175033542133	-6.02955803812791
			12.6123805351495	-6.03468085719174
			12.6072577160856	-6.03980367625557
			12.6021348970218	-6.03980367625557
			12.597012077958	-6.0449264953194
			12.5918892588941	-6.0449264953194
			12.5867664398303	-6.05004931438323
			12.5816436207665	-6.05004931438323
			12.5765208017026	-6.05517213344706
			12.5713979826388	-6.05517213344706
			12.566275163575	-6.06029495251089
			12.5611523445112	-6.06029495251089
			12.5560295254473	-6.06541777157472
			12.5509067063835	-6.06541777157472
			12.5457838873197	-6.06541777157472
			12.5406610682558	-6.07054059063855
			12.535538249192	-6.07054059063855
			12.5304154301282	-6.07054059063855
			12.5252926110643	-6.07566340970238
			12.5201697920005	-6.07566340970238
			12.5150469729367	-6.07566340970238
			12.5099241538729	-6.07566340970238
			12.504801334809	-6.07566340970238
			12.4996785157452	-6.08078622876621
			12.4945556966814	-6.08078622876621
			12.4894328776175	-6.08078622876621
			12.4843100585537	-6.08078622876621
			12.4791872394899	-6.08078622876621
			12.474064420426	-6.08078622876621
			12.4689416013622	-6.08078622876621
			12.4638187822984	-6.08078622876621
			12.4586959632346	-6.08078622876621
			12.4586959632346	-6.08590904783004
			12.4535731441707	-6.08590904783004
			12.4484503251069	-6.08590904783004
			12.4433275060431	-6.08590904783004
			12.4382046869792	-6.08590904783004
			12.4330818679154	-6.08590904783004
			12.4279590488516	-6.08590904783004
		</Outline4>
	</curves.scaled>
	<ruler.points type=matrix rownames=TRUE colnames=FALSE nrow=2 ncol=2 as.numeric=TRUE >
		Ruler point 1	3031	2417
		Ruler point 2	1079	2431
	</ruler.points>
</shapes>

