<shapes type=list>
	<ruler.pixel type=vector names=FALSE length=1 as.numeric=TRUE >685.002919701807</ruler.pixel>
	<ruler.interval type=vector names=FALSE length=1 as.numeric=TRUE >10</ruler.interval>
	<scaling.units type=vector names=FALSE length=1 as.numeric=FALSE >mm</scaling.units>
	<scaling type=vector names=FALSE length=1 as.numeric=TRUE >0.0145984779223323</scaling>
	<landmarks.pixel type=matrix rownames=TRUE colnames=FALSE nrow=4 ncol=2 as.numeric=TRUE >
		Labial	2645	1562
		Posterior	2533	1506
		Lingual	2596	1398
		Anterior	2706	1457
	</landmarks.pixel>
	<landmarks.scaled type=matrix rownames=TRUE colnames=FALSE nrow=4 ncol=2 as.numeric=TRUE >
		Labial	38.612974104569	-22.8028225146831
		Posterior	36.9779445772677	-21.9853077510325
		Lingual	37.8976486863747	-20.4086721354206
		Anterior	39.5034812578312	-21.2699823328382
	</landmarks.scaled>
	<curves.control type=list>
		<Outline1 type=matrix rownames=FALSE colnames=FALSE nrow=23 ncol=2 as.numeric=TRUE >
			2645	1562
			2639	1568
			2634	1574
			2629	1578
			2622	1583
			2615	1587
			2608	1591
			2600	1594
			2594	1596
			2586	1597
			2577	1597
			2567	1596
			2560	1593
			2554	1588
			2548	1581
			2543	1574
			2539	1566
			2536	1558
			2533	1550
			2532	1543
			2534	1530
			2536	1520
			2533	1506
		</Outline1>
		<Outline2 type=matrix rownames=FALSE colnames=FALSE nrow=19 ncol=2 as.numeric=TRUE >
			2533	1506
			2530	1493
			2529	1481
			2528	1471
			2528	1460
			2530	1453
			2532	1445
			2537	1438
			2541	1430
			2545	1422
			2549	1413
			2552	1407
			2557	1402
			2564	1397
			2572	1395
			2580	1394
			2587	1395
			2591	1397
			2596	1398
		</Outline2>
		<Outline3 type=matrix rownames=FALSE colnames=FALSE nrow=19 ncol=2 as.numeric=TRUE >
			2596	1398
			2604	1398
			2611	1398
			2618	1396
			2626	1395
			2634	1395
			2640	1397
			2646	1400
			2654	1400
			2664	1400
			2673	1402
			2680	1405
			2688	1411
			2694	1418
			2699	1427
			2702	1435
			2704	1443
			2705	1450
			2706	1457
		</Outline3>
		<Outline4 type=matrix rownames=FALSE colnames=FALSE nrow=15 ncol=2 as.numeric=TRUE >
			2706	1457
			2707	1470
			2707	1480
			2708	1490
			2706	1502
			2703	1510
			2698	1517
			2693	1523
			2689	1529
			2683	1535
			2675	1541
			2669	1545
			2662	1549
			2655	1554
			2645	1562
		</Outline4>
	</curves.control>
	<curves.pixel type=list>
		<Outline1 type=matrix rownames=FALSE colnames=FALSE nrow=181 ncol=2 as.numeric=TRUE >
			2645	1562
			2644	1563
			2643	1564
			2642	1565
			2641	1566
			2640	1567
			2639	1568
			2639	1569
			2638	1570
			2637	1570
			2636	1571
			2636	1572
			2635	1573
			2634	1574
			2633	1575
			2632	1576
			2631	1576
			2630	1577
			2629	1578
			2628	1578
			2627	1579
			2626	1580
			2625	1581
			2624	1581
			2623	1582
			2622	1583
			2621	1584
			2620	1584
			2619	1585
			2618	1585
			2617	1586
			2616	1586
			2615	1587
			2614	1588
			2613	1588
			2612	1589
			2611	1589
			2611	1590
			2610	1590
			2609	1590
			2608	1591
			2607	1591
			2606	1592
			2605	1592
			2604	1592
			2604	1593
			2603	1593
			2602	1593
			2601	1594
			2600	1594
			2599	1594
			2598	1595
			2597	1595
			2596	1595
			2595	1596
			2594	1596
			2593	1596
			2592	1596
			2591	1596
			2590	1596
			2589	1597
			2588	1597
			2587	1597
			2586	1597
			2585	1597
			2584	1597
			2583	1597
			2582	1597
			2581	1597
			2580	1597
			2579	1597
			2578	1597
			2577	1597
			2576	1597
			2575	1597
			2574	1597
			2573	1597
			2572	1596
			2571	1596
			2570	1596
			2569	1596
			2568	1596
			2567	1595
			2566	1595
			2565	1595
			2564	1595
			2563	1594
			2562	1594
			2561	1593
			2560	1593
			2559	1592
			2558	1591
			2557	1590
			2556	1590
			2556	1589
			2555	1588
			2554	1588
			2554	1587
			2553	1587
			2552	1586
			2552	1585
			2551	1585
			2551	1584
			2550	1583
			2549	1582
			2548	1581
			2547	1580
			2547	1579
			2546	1578
			2545	1577
			2545	1576
			2544	1575
			2543	1574
			2543	1573
			2542	1572
			2542	1571
			2541	1570
			2540	1569
			2540	1568
			2539	1567
			2539	1566
			2539	1565
			2538	1564
			2538	1563
			2537	1562
			2537	1561
			2537	1560
			2536	1559
			2536	1558
			2536	1557
			2535	1556
			2535	1555
			2535	1554
			2534	1553
			2534	1552
			2533	1551
			2533	1550
			2533	1549
			2533	1548
			2533	1547
			2533	1546
			2533	1545
			2533	1544
			2533	1543
			2533	1542
			2533	1541
			2533	1540
			2533	1539
			2533	1538
			2533	1537
			2533	1536
			2533	1535
			2533	1534
			2534	1533
			2534	1532
			2534	1531
			2534	1530
			2534	1529
			2534	1528
			2534	1527
			2535	1526
			2535	1525
			2535	1524
			2535	1523
			2535	1522
			2535	1521
			2535	1520
			2535	1519
			2535	1518
			2535	1517
			2535	1516
			2534	1515
			2534	1514
			2534	1513
			2534	1512
			2534	1511
			2534	1510
			2534	1509
			2533	1508
			2533	1507
			2533	1506
		</Outline1>
		<Outline2 type=matrix rownames=FALSE colnames=FALSE nrow=153 ncol=2 as.numeric=TRUE >
			2533	1506
			2533	1505
			2533	1504
			2532	1503
			2532	1502
			2532	1501
			2532	1500
			2531	1499
			2531	1498
			2531	1497
			2531	1496
			2531	1495
			2531	1494
			2530	1493
			2530	1492
			2530	1491
			2530	1490
			2530	1489
			2530	1488
			2530	1487
			2530	1486
			2529	1486
			2529	1485
			2529	1484
			2529	1483
			2529	1482
			2529	1481
			2529	1480
			2529	1479
			2529	1478
			2529	1477
			2529	1476
			2529	1475
			2528	1474
			2528	1473
			2528	1472
			2528	1471
			2528	1470
			2528	1469
			2528	1468
			2528	1467
			2528	1466
			2528	1465
			2528	1464
			2528	1463
			2528	1462
			2528	1461
			2528	1460
			2528	1459
			2529	1458
			2529	1457
			2529	1456
			2529	1455
			2530	1454
			2530	1453
			2530	1452
			2531	1451
			2531	1450
			2531	1449
			2531	1448
			2532	1447
			2532	1446
			2532	1445
			2533	1444
			2534	1443
			2534	1442
			2535	1441
			2535	1440
			2536	1439
			2537	1438
			2537	1437
			2538	1436
			2538	1435
			2539	1434
			2539	1433
			2540	1432
			2541	1431
			2541	1430
			2542	1429
			2542	1428
			2543	1427
			2543	1426
			2544	1425
			2544	1424
			2544	1423
			2545	1423
			2545	1422
			2545	1421
			2546	1421
			2546	1420
			2546	1419
			2547	1419
			2547	1418
			2547	1417
			2547	1416
			2548	1416
			2548	1415
			2548	1414
			2549	1414
			2549	1413
			2549	1412
			2550	1412
			2550	1411
			2551	1410
			2551	1409
			2552	1408
			2553	1407
			2554	1406
			2555	1405
			2555	1404
			2556	1403
			2557	1402
			2558	1401
			2559	1401
			2560	1400
			2561	1400
			2561	1399
			2562	1399
			2563	1398
			2564	1398
			2565	1398
			2566	1397
			2567	1396
			2568	1396
			2569	1396
			2570	1396
			2571	1395
			2572	1395
			2573	1395
			2574	1395
			2575	1395
			2576	1395
			2577	1395
			2578	1395
			2579	1395
			2580	1395
			2581	1395
			2582	1395
			2583	1395
			2584	1395
			2585	1395
			2586	1395
			2587	1395
			2588	1395
			2588	1396
			2589	1396
			2590	1396
			2591	1397
			2592	1397
			2593	1397
			2594	1398
			2595	1398
			2596	1398
		</Outline2>
		<Outline3 type=matrix rownames=FALSE colnames=FALSE nrow=139 ncol=2 as.numeric=TRUE >
			2596	1398
			2597	1398
			2598	1398
			2599	1398
			2600	1398
			2601	1398
			2602	1398
			2603	1398
			2604	1398
			2605	1398
			2606	1398
			2607	1398
			2608	1398
			2609	1398
			2610	1398
			2611	1398
			2612	1398
			2613	1398
			2614	1397
			2615	1397
			2616	1397
			2617	1397
			2618	1396
			2619	1396
			2620	1396
			2621	1396
			2622	1396
			2623	1395
			2624	1395
			2625	1395
			2626	1395
			2627	1395
			2628	1395
			2629	1395
			2630	1395
			2631	1395
			2632	1395
			2633	1395
			2634	1396
			2635	1396
			2636	1396
			2637	1396
			2638	1397
			2639	1397
			2640	1397
			2641	1398
			2642	1398
			2643	1398
			2644	1399
			2645	1399
			2646	1399
			2647	1399
			2648	1400
			2649	1400
			2650	1400
			2651	1400
			2652	1400
			2653	1400
			2654	1400
			2655	1400
			2656	1400
			2657	1400
			2658	1400
			2659	1400
			2660	1400
			2661	1400
			2662	1400
			2663	1400
			2664	1401
			2665	1401
			2666	1401
			2667	1401
			2668	1401
			2669	1401
			2670	1401
			2671	1402
			2672	1402
			2673	1402
			2674	1403
			2675	1403
			2676	1404
			2677	1404
			2678	1404
			2679	1405
			2680	1406
			2681	1406
			2682	1407
			2683	1408
			2684	1408
			2685	1409
			2686	1409
			2687	1410
			2688	1411
			2689	1412
			2690	1413
			2691	1414
			2691	1415
			2692	1416
			2693	1417
			2693	1418
			2694	1419
			2695	1420
			2696	1421
			2696	1422
			2697	1423
			2697	1424
			2698	1425
			2698	1426
			2699	1427
			2699	1428
			2700	1429
			2700	1430
			2700	1431
			2701	1432
			2701	1433
			2701	1434
			2702	1435
			2702	1436
			2702	1437
			2703	1438
			2703	1439
			2703	1440
			2703	1441
			2704	1442
			2704	1443
			2704	1444
			2704	1445
			2704	1446
			2705	1447
			2705	1448
			2705	1449
			2705	1450
			2705	1451
			2705	1452
			2705	1453
			2706	1454
			2706	1455
			2706	1456
			2706	1457
		</Outline3>
		<Outline4 type=matrix rownames=FALSE colnames=FALSE nrow=121 ncol=2 as.numeric=TRUE >
			2706	1457
			2706	1458
			2706	1459
			2706	1460
			2706	1461
			2706	1462
			2706	1463
			2706	1464
			2707	1465
			2707	1466
			2707	1467
			2707	1468
			2707	1469
			2707	1470
			2707	1471
			2707	1472
			2707	1473
			2707	1474
			2707	1475
			2707	1476
			2707	1477
			2707	1478
			2707	1479
			2707	1480
			2707	1481
			2707	1482
			2707	1483
			2707	1484
			2707	1485
			2707	1486
			2707	1487
			2707	1488
			2707	1489
			2707	1490
			2707	1491
			2707	1492
			2707	1493
			2707	1494
			2707	1495
			2707	1496
			2707	1497
			2707	1498
			2706	1499
			2706	1500
			2706	1501
			2706	1502
			2706	1503
			2705	1504
			2705	1505
			2704	1506
			2704	1507
			2703	1508
			2703	1509
			2702	1510
			2702	1511
			2701	1512
			2701	1513
			2700	1514
			2699	1515
			2699	1516
			2698	1517
			2697	1518
			2697	1519
			2696	1519
			2695	1520
			2695	1521
			2694	1522
			2694	1523
			2693	1523
			2692	1524
			2692	1525
			2691	1526
			2690	1527
			2690	1528
			2689	1529
			2688	1530
			2687	1531
			2686	1532
			2685	1533
			2684	1534
			2683	1535
			2682	1536
			2681	1536
			2680	1537
			2679	1538
			2678	1539
			2677	1539
			2676	1540
			2675	1541
			2674	1542
			2673	1542
			2672	1543
			2671	1543
			2670	1544
			2669	1545
			2668	1546
			2667	1546
			2666	1547
			2665	1547
			2665	1548
			2664	1548
			2663	1548
			2662	1549
			2661	1550
			2660	1551
			2659	1551
			2658	1552
			2657	1553
			2656	1553
			2655	1554
			2654	1555
			2653	1556
			2652	1557
			2651	1557
			2650	1558
			2649	1559
			2648	1560
			2647	1560
			2646	1561
			2646	1562
			2645	1562
		</Outline4>
	</curves.pixel>
	<curves.scaled type=list>
		<Outline1 type=matrix rownames=FALSE colnames=FALSE nrow=181 ncol=2 as.numeric=TRUE >
			38.612974104569	-22.8028225146831
			38.5983756266466	-22.8174209926054
			38.5837771487243	-22.8320194705277
			38.569178670802	-22.8466179484501
			38.5545801928796	-22.8612164263724
			38.5399817149573	-22.8758149042947
			38.525383237035	-22.8904133822171
			38.525383237035	-22.9050118601394
			38.5107847591126	-22.9196103380617
			38.4961862811903	-22.9196103380617
			38.481587803268	-22.9342088159841
			38.481587803268	-22.9488072939064
			38.4669893253456	-22.9634057718287
			38.4523908474233	-22.9780042497511
			38.437792369501	-22.9926027276734
			38.4231938915786	-23.0072012055957
			38.4085954136563	-23.0072012055957
			38.393996935734	-23.0217996835181
			38.3793984578116	-23.0363981614404
			38.3647999798893	-23.0363981614404
			38.350201501967	-23.0509966393627
			38.3356030240447	-23.0655951172851
			38.3210045461223	-23.0801935952074
			38.3064060682	-23.0801935952074
			38.2918075902777	-23.0947920731297
			38.2772091123553	-23.109390551052
			38.262610634433	-23.1239890289744
			38.2480121565107	-23.1239890289744
			38.2334136785883	-23.1385875068967
			38.218815200666	-23.1385875068967
			38.2042167227437	-23.153185984819
			38.1896182448213	-23.153185984819
			38.175019766899	-23.1677844627414
			38.1604212889767	-23.1823829406637
			38.1458228110543	-23.1823829406637
			38.131224333132	-23.196981418586
			38.1166258552097	-23.196981418586
			38.1166258552097	-23.2115798965084
			38.1020273772873	-23.2115798965084
			38.087428899365	-23.2115798965084
			38.0728304214427	-23.2261783744307
			38.0582319435203	-23.2261783744307
			38.043633465598	-23.240776852353
			38.0290349876757	-23.240776852353
			38.0144365097533	-23.240776852353
			38.0144365097533	-23.2553753302754
			37.999838031831	-23.2553753302754
			37.9852395539087	-23.2553753302754
			37.9706410759863	-23.2699738081977
			37.956042598064	-23.2699738081977
			37.9414441201417	-23.2699738081977
			37.9268456422193	-23.28457228612
			37.912247164297	-23.28457228612
			37.8976486863747	-23.28457228612
			37.8830502084523	-23.2991707640424
			37.86845173053	-23.2991707640424
			37.8538532526077	-23.2991707640424
			37.8392547746854	-23.2991707640424
			37.824656296763	-23.2991707640424
			37.8100578188407	-23.2991707640424
			37.7954593409184	-23.3137692419647
			37.780860862996	-23.3137692419647
			37.7662623850737	-23.3137692419647
			37.7516639071514	-23.3137692419647
			37.737065429229	-23.3137692419647
			37.7224669513067	-23.3137692419647
			37.7078684733844	-23.3137692419647
			37.693269995462	-23.3137692419647
			37.6786715175397	-23.3137692419647
			37.6640730396174	-23.3137692419647
			37.649474561695	-23.3137692419647
			37.6348760837727	-23.3137692419647
			37.6202776058504	-23.3137692419647
			37.605679127928	-23.3137692419647
			37.5910806500057	-23.3137692419647
			37.5764821720834	-23.3137692419647
			37.561883694161	-23.3137692419647
			37.5472852162387	-23.2991707640424
			37.5326867383164	-23.2991707640424
			37.518088260394	-23.2991707640424
			37.5034897824717	-23.2991707640424
			37.4888913045494	-23.2991707640424
			37.474292826627	-23.28457228612
			37.4596943487047	-23.28457228612
			37.4450958707824	-23.28457228612
			37.43049739286	-23.28457228612
			37.4158989149377	-23.2699738081977
			37.4013004370154	-23.2699738081977
			37.3867019590931	-23.2553753302754
			37.3721034811707	-23.2553753302754
			37.3575050032484	-23.240776852353
			37.3429065253261	-23.2261783744307
			37.3283080474037	-23.2115798965084
			37.3137095694814	-23.2115798965084
			37.3137095694814	-23.196981418586
			37.2991110915591	-23.1823829406637
			37.2845126136367	-23.1823829406637
			37.2845126136367	-23.1677844627414
			37.2699141357144	-23.1677844627414
			37.2553156577921	-23.153185984819
			37.2553156577921	-23.1385875068967
			37.2407171798697	-23.1385875068967
			37.2407171798697	-23.1239890289744
			37.2261187019474	-23.109390551052
			37.2115202240251	-23.0947920731297
			37.1969217461027	-23.0801935952074
			37.1823232681804	-23.0655951172851
			37.1823232681804	-23.0509966393627
			37.1677247902581	-23.0363981614404
			37.1531263123357	-23.0217996835181
			37.1531263123357	-23.0072012055957
			37.1385278344134	-22.9926027276734
			37.1239293564911	-22.9780042497511
			37.1239293564911	-22.9634057718287
			37.1093308785687	-22.9488072939064
			37.1093308785687	-22.9342088159841
			37.0947324006464	-22.9196103380617
			37.0801339227241	-22.9050118601394
			37.0801339227241	-22.8904133822171
			37.0655354448017	-22.8758149042947
			37.0655354448017	-22.8612164263724
			37.0655354448017	-22.8466179484501
			37.0509369668794	-22.8320194705277
			37.0509369668794	-22.8174209926054
			37.0363384889571	-22.8028225146831
			37.0363384889571	-22.7882240367607
			37.0363384889571	-22.7736255588384
			37.0217400110347	-22.7590270809161
			37.0217400110347	-22.7444286029937
			37.0217400110347	-22.7298301250714
			37.0071415331124	-22.7152316471491
			37.0071415331124	-22.7006331692267
			37.0071415331124	-22.6860346913044
			36.9925430551901	-22.6714362133821
			36.9925430551901	-22.6568377354597
			36.9779445772677	-22.6422392575374
			36.9779445772677	-22.6276407796151
			36.9779445772677	-22.6130423016928
			36.9779445772677	-22.5984438237704
			36.9779445772677	-22.5838453458481
			36.9779445772677	-22.5692468679258
			36.9779445772677	-22.5546483900034
			36.9779445772677	-22.5400499120811
			36.9779445772677	-22.5254514341588
			36.9779445772677	-22.5108529562364
			36.9779445772677	-22.4962544783141
			36.9779445772677	-22.4816560003918
			36.9779445772677	-22.4670575224694
			36.9779445772677	-22.4524590445471
			36.9779445772677	-22.4378605666248
			36.9779445772677	-22.4232620887024
			36.9779445772677	-22.4086636107801
			36.9779445772677	-22.3940651328578
			36.9925430551901	-22.3794666549354
			36.9925430551901	-22.3648681770131
			36.9925430551901	-22.3502696990908
			36.9925430551901	-22.3356712211684
			36.9925430551901	-22.3210727432461
			36.9925430551901	-22.3064742653238
			36.9925430551901	-22.2918757874014
			37.0071415331124	-22.2772773094791
			37.0071415331124	-22.2626788315568
			37.0071415331124	-22.2480803536344
			37.0071415331124	-22.2334818757121
			37.0071415331124	-22.2188833977898
			37.0071415331124	-22.2042849198674
			37.0071415331124	-22.1896864419451
			37.0071415331124	-22.1750879640228
			37.0071415331124	-22.1604894861004
			37.0071415331124	-22.1458910081781
			37.0071415331124	-22.1312925302558
			36.9925430551901	-22.1166940523335
			36.9925430551901	-22.1020955744111
			36.9925430551901	-22.0874970964888
			36.9925430551901	-22.0728986185665
			36.9925430551901	-22.0583001406441
			36.9925430551901	-22.0437016627218
			36.9925430551901	-22.0291031847995
			36.9779445772677	-22.0145047068771
			36.9779445772677	-21.9999062289548
			36.9779445772677	-21.9853077510325
		</Outline1>
		<Outline2 type=matrix rownames=FALSE colnames=FALSE nrow=153 ncol=2 as.numeric=TRUE >
			36.9779445772677	-21.9853077510325
			36.9779445772677	-21.9707092731101
			36.9779445772677	-21.9561107951878
			36.9633460993454	-21.9415123172655
			36.9633460993454	-21.9269138393431
			36.9633460993454	-21.9123153614208
			36.9633460993454	-21.8977168834985
			36.9487476214231	-21.8831184055761
			36.9487476214231	-21.8685199276538
			36.9487476214231	-21.8539214497315
			36.9487476214231	-21.8393229718091
			36.9487476214231	-21.8247244938868
			36.9487476214231	-21.8101260159645
			36.9341491435007	-21.7955275380421
			36.9341491435007	-21.7809290601198
			36.9341491435007	-21.7663305821975
			36.9341491435007	-21.7517321042751
			36.9341491435007	-21.7371336263528
			36.9341491435007	-21.7225351484305
			36.9341491435007	-21.7079366705081
			36.9341491435007	-21.6933381925858
			36.9195506655784	-21.6933381925858
			36.9195506655784	-21.6787397146635
			36.9195506655784	-21.6641412367412
			36.9195506655784	-21.6495427588188
			36.9195506655784	-21.6349442808965
			36.9195506655784	-21.6203458029742
			36.9195506655784	-21.6057473250518
			36.9195506655784	-21.5911488471295
			36.9195506655784	-21.5765503692072
			36.9195506655784	-21.5619518912848
			36.9195506655784	-21.5473534133625
			36.9195506655784	-21.5327549354402
			36.9049521876561	-21.5181564575178
			36.9049521876561	-21.5035579795955
			36.9049521876561	-21.4889595016732
			36.9049521876561	-21.4743610237508
			36.9049521876561	-21.4597625458285
			36.9049521876561	-21.4451640679062
			36.9049521876561	-21.4305655899838
			36.9049521876561	-21.4159671120615
			36.9049521876561	-21.4013686341392
			36.9049521876561	-21.3867701562168
			36.9049521876561	-21.3721716782945
			36.9049521876561	-21.3575732003722
			36.9049521876561	-21.3429747224498
			36.9049521876561	-21.3283762445275
			36.9049521876561	-21.3137777666052
			36.9049521876561	-21.2991792886828
			36.9195506655784	-21.2845808107605
			36.9195506655784	-21.2699823328382
			36.9195506655784	-21.2553838549158
			36.9195506655784	-21.2407853769935
			36.9341491435007	-21.2261868990712
			36.9341491435007	-21.2115884211488
			36.9341491435007	-21.1969899432265
			36.9487476214231	-21.1823914653042
			36.9487476214231	-21.1677929873819
			36.9487476214231	-21.1531945094595
			36.9487476214231	-21.1385960315372
			36.9633460993454	-21.1239975536149
			36.9633460993454	-21.1093990756925
			36.9633460993454	-21.0948005977702
			36.9779445772677	-21.0802021198479
			36.9925430551901	-21.0656036419255
			36.9925430551901	-21.0510051640032
			37.0071415331124	-21.0364066860809
			37.0071415331124	-21.0218082081585
			37.0217400110347	-21.0072097302362
			37.0363384889571	-20.9926112523139
			37.0363384889571	-20.9780127743915
			37.0509369668794	-20.9634142964692
			37.0509369668794	-20.9488158185469
			37.0655354448017	-20.9342173406245
			37.0655354448017	-20.9196188627022
			37.0801339227241	-20.9050203847799
			37.0947324006464	-20.8904219068575
			37.0947324006464	-20.8758234289352
			37.1093308785687	-20.8612249510129
			37.1093308785687	-20.8466264730905
			37.1239293564911	-20.8320279951682
			37.1239293564911	-20.8174295172459
			37.1385278344134	-20.8028310393235
			37.1385278344134	-20.7882325614012
			37.1385278344134	-20.7736340834789
			37.1531263123357	-20.7736340834789
			37.1531263123357	-20.7590356055565
			37.1531263123357	-20.7444371276342
			37.1677247902581	-20.7444371276342
			37.1677247902581	-20.7298386497119
			37.1677247902581	-20.7152401717895
			37.1823232681804	-20.7152401717895
			37.1823232681804	-20.7006416938672
			37.1823232681804	-20.6860432159449
			37.1823232681804	-20.6714447380226
			37.1969217461027	-20.6714447380226
			37.1969217461027	-20.6568462601002
			37.1969217461027	-20.6422477821779
			37.2115202240251	-20.6422477821779
			37.2115202240251	-20.6276493042556
			37.2115202240251	-20.6130508263332
			37.2261187019474	-20.6130508263332
			37.2261187019474	-20.5984523484109
			37.2407171798697	-20.5838538704886
			37.2407171798697	-20.5692553925662
			37.2553156577921	-20.5546569146439
			37.2699141357144	-20.5400584367216
			37.2845126136367	-20.5254599587992
			37.2991110915591	-20.5108614808769
			37.2991110915591	-20.4962630029546
			37.3137095694814	-20.4816645250322
			37.3283080474037	-20.4670660471099
			37.3429065253261	-20.4524675691876
			37.3575050032484	-20.4524675691876
			37.3721034811707	-20.4378690912652
			37.3867019590931	-20.4378690912652
			37.3867019590931	-20.4232706133429
			37.4013004370154	-20.4232706133429
			37.4158989149377	-20.4086721354206
			37.43049739286	-20.4086721354206
			37.4450958707824	-20.4086721354206
			37.4596943487047	-20.3940736574982
			37.474292826627	-20.3794751795759
			37.4888913045494	-20.3794751795759
			37.5034897824717	-20.3794751795759
			37.518088260394	-20.3794751795759
			37.5326867383164	-20.3648767016536
			37.5472852162387	-20.3648767016536
			37.561883694161	-20.3648767016536
			37.5764821720834	-20.3648767016536
			37.5910806500057	-20.3648767016536
			37.605679127928	-20.3648767016536
			37.6202776058504	-20.3648767016536
			37.6348760837727	-20.3648767016536
			37.649474561695	-20.3648767016536
			37.6640730396174	-20.3648767016536
			37.6786715175397	-20.3648767016536
			37.693269995462	-20.3648767016536
			37.7078684733844	-20.3648767016536
			37.7224669513067	-20.3648767016536
			37.737065429229	-20.3648767016536
			37.7516639071514	-20.3648767016536
			37.7662623850737	-20.3648767016536
			37.780860862996	-20.3648767016536
			37.780860862996	-20.3794751795759
			37.7954593409184	-20.3794751795759
			37.8100578188407	-20.3794751795759
			37.824656296763	-20.3940736574982
			37.8392547746854	-20.3940736574982
			37.8538532526077	-20.3940736574982
			37.86845173053	-20.4086721354206
			37.8830502084523	-20.4086721354206
			37.8976486863747	-20.4086721354206
		</Outline2>
		<Outline3 type=matrix rownames=FALSE colnames=FALSE nrow=139 ncol=2 as.numeric=TRUE >
			37.8976486863747	-20.4086721354206
			37.912247164297	-20.4086721354206
			37.9268456422193	-20.4086721354206
			37.9414441201417	-20.4086721354206
			37.956042598064	-20.4086721354206
			37.9706410759863	-20.4086721354206
			37.9852395539087	-20.4086721354206
			37.999838031831	-20.4086721354206
			38.0144365097533	-20.4086721354206
			38.0290349876757	-20.4086721354206
			38.043633465598	-20.4086721354206
			38.0582319435203	-20.4086721354206
			38.0728304214427	-20.4086721354206
			38.087428899365	-20.4086721354206
			38.1020273772873	-20.4086721354206
			38.1166258552097	-20.4086721354206
			38.131224333132	-20.4086721354206
			38.1458228110543	-20.4086721354206
			38.1604212889767	-20.3940736574982
			38.175019766899	-20.3940736574982
			38.1896182448213	-20.3940736574982
			38.2042167227437	-20.3940736574982
			38.218815200666	-20.3794751795759
			38.2334136785883	-20.3794751795759
			38.2480121565107	-20.3794751795759
			38.262610634433	-20.3794751795759
			38.2772091123553	-20.3794751795759
			38.2918075902777	-20.3648767016536
			38.3064060682	-20.3648767016536
			38.3210045461223	-20.3648767016536
			38.3356030240447	-20.3648767016536
			38.350201501967	-20.3648767016536
			38.3647999798893	-20.3648767016536
			38.3793984578116	-20.3648767016536
			38.393996935734	-20.3648767016536
			38.4085954136563	-20.3648767016536
			38.4231938915786	-20.3648767016536
			38.437792369501	-20.3648767016536
			38.4523908474233	-20.3794751795759
			38.4669893253456	-20.3794751795759
			38.481587803268	-20.3794751795759
			38.4961862811903	-20.3794751795759
			38.5107847591126	-20.3940736574982
			38.525383237035	-20.3940736574982
			38.5399817149573	-20.3940736574982
			38.5545801928796	-20.4086721354206
			38.569178670802	-20.4086721354206
			38.5837771487243	-20.4086721354206
			38.5983756266466	-20.4232706133429
			38.612974104569	-20.4232706133429
			38.6275725824913	-20.4232706133429
			38.6421710604136	-20.4232706133429
			38.656769538336	-20.4378690912652
			38.6713680162583	-20.4378690912652
			38.6859664941806	-20.4378690912652
			38.700564972103	-20.4378690912652
			38.7151634500253	-20.4378690912652
			38.7297619279476	-20.4378690912652
			38.74436040587	-20.4378690912652
			38.7589588837923	-20.4378690912652
			38.7735573617146	-20.4378690912652
			38.7881558396369	-20.4378690912652
			38.8027543175593	-20.4378690912652
			38.8173527954816	-20.4378690912652
			38.831951273404	-20.4378690912652
			38.8465497513263	-20.4378690912652
			38.8611482292486	-20.4378690912652
			38.8757467071709	-20.4378690912652
			38.8903451850933	-20.4524675691876
			38.9049436630156	-20.4524675691876
			38.9195421409379	-20.4524675691876
			38.9341406188603	-20.4524675691876
			38.9487390967826	-20.4524675691876
			38.9633375747049	-20.4524675691876
			38.9779360526273	-20.4524675691876
			38.9925345305496	-20.4670660471099
			39.0071330084719	-20.4670660471099
			39.0217314863943	-20.4670660471099
			39.0363299643166	-20.4816645250322
			39.0509284422389	-20.4816645250322
			39.0655269201613	-20.4962630029546
			39.0801253980836	-20.4962630029546
			39.0947238760059	-20.4962630029546
			39.1093223539283	-20.5108614808769
			39.1239208318506	-20.5254599587992
			39.1385193097729	-20.5254599587992
			39.1531177876953	-20.5400584367216
			39.1677162656176	-20.5546569146439
			39.1823147435399	-20.5546569146439
			39.1969132214623	-20.5692553925662
			39.2115116993846	-20.5692553925662
			39.2261101773069	-20.5838538704886
			39.2407086552293	-20.5984523484109
			39.2553071331516	-20.6130508263332
			39.2699056110739	-20.6276493042556
			39.2845040889963	-20.6422477821779
			39.2845040889963	-20.6568462601002
			39.2991025669186	-20.6714447380226
			39.3137010448409	-20.6860432159449
			39.3137010448409	-20.7006416938672
			39.3282995227632	-20.7152401717895
			39.3428980006856	-20.7298386497119
			39.3574964786079	-20.7444371276342
			39.3574964786079	-20.7590356055565
			39.3720949565302	-20.7736340834789
			39.3720949565302	-20.7882325614012
			39.3866934344526	-20.8028310393235
			39.3866934344526	-20.8174295172459
			39.4012919123749	-20.8320279951682
			39.4012919123749	-20.8466264730905
			39.4158903902972	-20.8612249510129
			39.4158903902972	-20.8758234289352
			39.4158903902972	-20.8904219068575
			39.4304888682196	-20.9050203847799
			39.4304888682196	-20.9196188627022
			39.4304888682196	-20.9342173406245
			39.4450873461419	-20.9488158185469
			39.4450873461419	-20.9634142964692
			39.4450873461419	-20.9780127743915
			39.4596858240642	-20.9926112523139
			39.4596858240642	-21.0072097302362
			39.4596858240642	-21.0218082081585
			39.4596858240642	-21.0364066860809
			39.4742843019866	-21.0510051640032
			39.4742843019866	-21.0656036419255
			39.4742843019866	-21.0802021198479
			39.4742843019866	-21.0948005977702
			39.4742843019866	-21.1093990756925
			39.4888827799089	-21.1239975536149
			39.4888827799089	-21.1385960315372
			39.4888827799089	-21.1531945094595
			39.4888827799089	-21.1677929873819
			39.4888827799089	-21.1823914653042
			39.4888827799089	-21.1969899432265
			39.4888827799089	-21.2115884211488
			39.5034812578312	-21.2261868990712
			39.5034812578312	-21.2407853769935
			39.5034812578312	-21.2553838549158
			39.5034812578312	-21.2699823328382
		</Outline3>
		<Outline4 type=matrix rownames=FALSE colnames=FALSE nrow=121 ncol=2 as.numeric=TRUE >
			39.5034812578312	-21.2699823328382
			39.5034812578312	-21.2845808107605
			39.5034812578312	-21.2991792886828
			39.5034812578312	-21.3137777666052
			39.5034812578312	-21.3283762445275
			39.5034812578312	-21.3429747224498
			39.5034812578312	-21.3575732003722
			39.5034812578312	-21.3721716782945
			39.5180797357536	-21.3867701562168
			39.5180797357536	-21.4013686341392
			39.5180797357536	-21.4159671120615
			39.5180797357536	-21.4305655899838
			39.5180797357536	-21.4451640679062
			39.5180797357536	-21.4597625458285
			39.5180797357536	-21.4743610237508
			39.5180797357536	-21.4889595016732
			39.5180797357536	-21.5035579795955
			39.5180797357536	-21.5181564575178
			39.5180797357536	-21.5327549354402
			39.5180797357536	-21.5473534133625
			39.5180797357536	-21.5619518912848
			39.5180797357536	-21.5765503692072
			39.5180797357536	-21.5911488471295
			39.5180797357536	-21.6057473250518
			39.5180797357536	-21.6203458029742
			39.5180797357536	-21.6349442808965
			39.5180797357536	-21.6495427588188
			39.5180797357536	-21.6641412367412
			39.5180797357536	-21.6787397146635
			39.5180797357536	-21.6933381925858
			39.5180797357536	-21.7079366705081
			39.5180797357536	-21.7225351484305
			39.5180797357536	-21.7371336263528
			39.5180797357536	-21.7517321042751
			39.5180797357536	-21.7663305821975
			39.5180797357536	-21.7809290601198
			39.5180797357536	-21.7955275380421
			39.5180797357536	-21.8101260159645
			39.5180797357536	-21.8247244938868
			39.5180797357536	-21.8393229718091
			39.5180797357536	-21.8539214497315
			39.5180797357536	-21.8685199276538
			39.5034812578312	-21.8831184055761
			39.5034812578312	-21.8977168834985
			39.5034812578312	-21.9123153614208
			39.5034812578312	-21.9269138393431
			39.5034812578312	-21.9415123172655
			39.4888827799089	-21.9561107951878
			39.4888827799089	-21.9707092731101
			39.4742843019866	-21.9853077510325
			39.4742843019866	-21.9999062289548
			39.4596858240642	-22.0145047068771
			39.4596858240642	-22.0291031847995
			39.4450873461419	-22.0437016627218
			39.4450873461419	-22.0583001406441
			39.4304888682196	-22.0728986185665
			39.4304888682196	-22.0874970964888
			39.4158903902972	-22.1020955744111
			39.4012919123749	-22.1166940523335
			39.4012919123749	-22.1312925302558
			39.3866934344526	-22.1458910081781
			39.3720949565302	-22.1604894861004
			39.3720949565302	-22.1750879640228
			39.3574964786079	-22.1750879640228
			39.3428980006856	-22.1896864419451
			39.3428980006856	-22.2042849198674
			39.3282995227632	-22.2188833977898
			39.3282995227632	-22.2334818757121
			39.3137010448409	-22.2334818757121
			39.2991025669186	-22.2480803536344
			39.2991025669186	-22.2626788315568
			39.2845040889963	-22.2772773094791
			39.2699056110739	-22.2918757874014
			39.2699056110739	-22.3064742653238
			39.2553071331516	-22.3210727432461
			39.2407086552293	-22.3356712211684
			39.2261101773069	-22.3502696990908
			39.2115116993846	-22.3648681770131
			39.1969132214623	-22.3794666549354
			39.1823147435399	-22.3940651328578
			39.1677162656176	-22.4086636107801
			39.1531177876953	-22.4232620887024
			39.1385193097729	-22.4232620887024
			39.1239208318506	-22.4378605666248
			39.1093223539283	-22.4524590445471
			39.0947238760059	-22.4670575224694
			39.0801253980836	-22.4670575224694
			39.0655269201613	-22.4816560003918
			39.0509284422389	-22.4962544783141
			39.0363299643166	-22.5108529562364
			39.0217314863943	-22.5108529562364
			39.0071330084719	-22.5254514341588
			38.9925345305496	-22.5254514341588
			38.9779360526273	-22.5400499120811
			38.9633375747049	-22.5546483900034
			38.9487390967826	-22.5692468679258
			38.9341406188603	-22.5692468679258
			38.9195421409379	-22.5838453458481
			38.9049436630156	-22.5838453458481
			38.9049436630156	-22.5984438237704
			38.8903451850933	-22.5984438237704
			38.8757467071709	-22.5984438237704
			38.8611482292486	-22.6130423016928
			38.8465497513263	-22.6276407796151
			38.831951273404	-22.6422392575374
			38.8173527954816	-22.6422392575374
			38.8027543175593	-22.6568377354597
			38.7881558396369	-22.6714362133821
			38.7735573617146	-22.6714362133821
			38.7589588837923	-22.6860346913044
			38.74436040587	-22.7006331692267
			38.7297619279476	-22.7152316471491
			38.7151634500253	-22.7298301250714
			38.700564972103	-22.7298301250714
			38.6859664941806	-22.7444286029937
			38.6713680162583	-22.7590270809161
			38.656769538336	-22.7736255588384
			38.6421710604136	-22.7736255588384
			38.6275725824913	-22.7882240367607
			38.6275725824913	-22.8028225146831
			38.612974104569	-22.8028225146831
		</Outline4>
	</curves.scaled>
	<ruler.points type=matrix rownames=TRUE colnames=FALSE nrow=2 ncol=2 as.numeric=TRUE >
		Ruler point 1	2964	2534
		Ruler point 2	2279	2532
	</ruler.points>
</shapes>

