<shapes type=list>
	<ruler.pixel type=vector names=FALSE length=1 as.numeric=TRUE >691.011577327037</ruler.pixel>
	<ruler.interval type=vector names=FALSE length=1 as.numeric=TRUE >10</ruler.interval>
	<scaling.units type=vector names=FALSE length=1 as.numeric=FALSE >mm</scaling.units>
	<scaling type=vector names=FALSE length=1 as.numeric=TRUE >0.0144715375662473</scaling>
	<landmarks.pixel type=matrix rownames=TRUE colnames=FALSE nrow=4 ncol=2 as.numeric=TRUE >
		Labial	2139	1301
		Posterior	2044	1243
		Lingual	2111	1151
		Anterior	2209	1213
	</landmarks.pixel>
	<landmarks.scaled type=matrix rownames=TRUE colnames=FALSE nrow=4 ncol=2 as.numeric=TRUE >
		Labial	30.9546188542029	-18.8274703736877
		Posterior	29.5798227854094	-17.9881211948454
		Lingual	30.549415802348	-16.6567397387506
		Anterior	31.9676264838402	-17.5539750678579
	</landmarks.scaled>
	<curves.control type=list>
		<Outline1 type=matrix rownames=FALSE colnames=FALSE nrow=21 ncol=2 as.numeric=TRUE >
			2139	1301
			2134	1306
			2127	1311
			2120	1316
			2110	1319
			2102	1321
			2093	1321
			2084	1318
			2077	1316
			2071	1313
			2065	1310
			2059	1305
			2055	1299
			2050	1291
			2047	1284
			2045	1276
			2046	1269
			2046	1261
			2045	1254
			2044	1248
			2044	1243
		</Outline1>
		<Outline2 type=matrix rownames=FALSE colnames=FALSE nrow=11 ncol=2 as.numeric=TRUE >
			2044	1243
			2044	1233
			2044	1226
			2054	1173
			2059	1167
			2064	1162
			2070	1157
			2077	1154
			2084	1152
			2093	1151
			2111	1151
		</Outline2>
		<Outline3 type=matrix rownames=FALSE colnames=FALSE nrow=15 ncol=2 as.numeric=TRUE >
			2111	1151
			2123	1152
			2133	1152
			2143	1154
			2152	1156
			2160	1158
			2170	1163
			2179	1167
			2187	1172
			2193	1177
			2198	1185
			2203	1192
			2205	1199
			2207	1205
			2209	1213
		</Outline3>
		<Outline4 type=matrix rownames=FALSE colnames=FALSE nrow=19 ncol=2 as.numeric=TRUE >
			2209	1213
			2211	1221
			2212	1228
			2212	1237
			2212	1245
			2211	1253
			2207	1261
			2202	1266
			2198	1271
			2194	1275
			2188	1281
			2182	1284
			2175	1286
			2166	1285
			2159	1284
			2154	1284
			2149	1288
			2145	1293
			2139	1301
		</Outline4>
	</curves.control>
	<curves.pixel type=list>
		<Outline1 type=matrix rownames=FALSE colnames=FALSE nrow=145 ncol=2 as.numeric=TRUE >
			2139	1301
			2138	1302
			2137	1303
			2136	1304
			2135	1305
			2134	1306
			2133	1307
			2132	1307
			2131	1308
			2130	1309
			2129	1310
			2128	1310
			2127	1311
			2126	1312
			2125	1312
			2124	1313
			2123	1314
			2122	1314
			2121	1315
			2120	1315
			2119	1316
			2118	1316
			2117	1316
			2116	1317
			2115	1317
			2114	1318
			2113	1318
			2112	1318
			2111	1319
			2110	1319
			2109	1319
			2108	1319
			2107	1320
			2106	1320
			2105	1320
			2104	1320
			2103	1320
			2102	1321
			2101	1321
			2100	1321
			2099	1321
			2098	1321
			2097	1321
			2096	1321
			2095	1321
			2094	1321
			2093	1321
			2092	1321
			2091	1320
			2090	1320
			2089	1320
			2088	1319
			2087	1319
			2086	1319
			2085	1318
			2084	1318
			2083	1318
			2082	1318
			2081	1317
			2080	1317
			2079	1316
			2078	1316
			2077	1316
			2076	1315
			2075	1315
			2074	1315
			2073	1314
			2072	1313
			2071	1313
			2070	1312
			2069	1312
			2068	1311
			2067	1311
			2066	1310
			2065	1310
			2064	1309
			2063	1308
			2062	1307
			2061	1306
			2060	1305
			2059	1305
			2058	1304
			2058	1303
			2057	1302
			2056	1301
			2056	1300
			2055	1299
			2054	1298
			2054	1297
			2053	1296
			2052	1295
			2052	1294
			2051	1293
			2051	1292
			2050	1291
			2050	1290
			2050	1289
			2049	1288
			2048	1287
			2048	1286
			2047	1285
			2047	1284
			2047	1283
			2047	1282
			2046	1282
			2046	1281
			2046	1280
			2046	1279
			2046	1278
			2046	1277
			2046	1276
			2046	1275
			2046	1274
			2046	1273
			2046	1272
			2046	1271
			2046	1270
			2046	1269
			2046	1268
			2046	1267
			2046	1266
			2046	1265
			2046	1264
			2046	1263
			2046	1262
			2046	1261
			2046	1260
			2046	1259
			2046	1258
			2045	1258
			2045	1257
			2045	1256
			2045	1255
			2045	1254
			2045	1253
			2045	1252
			2045	1251
			2044	1250
			2044	1249
			2044	1248
			2044	1247
			2044	1246
			2044	1245
			2044	1244
			2044	1243
		</Outline1>
		<Outline2 type=matrix rownames=FALSE colnames=FALSE nrow=131 ncol=2 as.numeric=TRUE >
			2044	1243
			2044	1242
			2044	1241
			2044	1240
			2044	1239
			2044	1238
			2044	1237
			2044	1236
			2044	1235
			2044	1234
			2044	1233
			2044	1232
			2044	1231
			2044	1230
			2044	1229
			2044	1228
			2044	1227
			2044	1226
			2044	1225
			2044	1224
			2045	1223
			2045	1222
			2045	1221
			2045	1220
			2045	1219
			2046	1218
			2046	1217
			2046	1216
			2046	1215
			2046	1214
			2047	1213
			2047	1212
			2047	1211
			2047	1210
			2047	1209
			2047	1208
			2048	1207
			2048	1206
			2048	1205
			2048	1204
			2049	1203
			2049	1202
			2049	1201
			2049	1200
			2049	1199
			2050	1198
			2050	1197
			2050	1196
			2050	1195
			2050	1194
			2051	1193
			2051	1192
			2051	1191
			2051	1190
			2052	1189
			2052	1188
			2052	1187
			2052	1186
			2053	1185
			2053	1184
			2053	1183
			2053	1182
			2054	1181
			2054	1180
			2054	1179
			2054	1178
			2055	1178
			2055	1177
			2055	1176
			2055	1175
			2056	1175
			2056	1174
			2056	1173
			2056	1172
			2057	1171
			2057	1170
			2058	1169
			2058	1168
			2059	1167
			2060	1166
			2061	1165
			2062	1164
			2063	1163
			2064	1162
			2065	1161
			2066	1160
			2067	1160
			2068	1159
			2069	1158
			2070	1157
			2071	1157
			2072	1156
			2073	1156
			2074	1155
			2075	1155
			2076	1155
			2077	1154
			2078	1154
			2079	1153
			2080	1153
			2081	1153
			2082	1153
			2083	1152
			2084	1152
			2085	1152
			2086	1152
			2087	1152
			2088	1152
			2089	1152
			2090	1152
			2091	1151
			2092	1151
			2093	1151
			2094	1151
			2095	1151
			2096	1151
			2097	1151
			2098	1151
			2099	1151
			2100	1151
			2101	1151
			2102	1151
			2103	1151
			2104	1151
			2105	1151
			2106	1151
			2107	1151
			2108	1151
			2109	1151
			2110	1151
			2111	1151
		</Outline2>
		<Outline3 type=matrix rownames=FALSE colnames=FALSE nrow=124 ncol=2 as.numeric=TRUE >
			2111	1151
			2112	1151
			2113	1151
			2114	1151
			2115	1151
			2116	1151
			2117	1151
			2118	1152
			2119	1152
			2120	1152
			2121	1152
			2122	1152
			2123	1152
			2124	1152
			2125	1152
			2126	1152
			2127	1152
			2128	1152
			2129	1152
			2130	1152
			2131	1152
			2132	1152
			2133	1152
			2134	1152
			2135	1152
			2136	1153
			2137	1153
			2138	1153
			2139	1153
			2140	1153
			2141	1154
			2142	1154
			2143	1154
			2144	1154
			2145	1154
			2146	1155
			2147	1155
			2148	1155
			2149	1155
			2150	1156
			2151	1156
			2152	1156
			2153	1156
			2154	1157
			2155	1157
			2156	1157
			2157	1157
			2157	1158
			2158	1158
			2159	1158
			2160	1159
			2161	1159
			2162	1159
			2163	1160
			2164	1160
			2165	1160
			2166	1161
			2167	1162
			2168	1162
			2169	1162
			2170	1163
			2171	1163
			2172	1164
			2173	1165
			2174	1165
			2175	1165
			2176	1166
			2177	1166
			2178	1167
			2179	1167
			2180	1168
			2181	1168
			2181	1169
			2182	1169
			2183	1170
			2184	1170
			2185	1171
			2186	1171
			2186	1172
			2187	1172
			2188	1173
			2189	1174
			2190	1175
			2191	1176
			2192	1177
			2193	1178
			2194	1179
			2194	1180
			2195	1181
			2196	1182
			2196	1183
			2197	1183
			2198	1184
			2198	1185
			2199	1186
			2199	1187
			2200	1188
			2200	1189
			2201	1190
			2202	1191
			2202	1192
			2203	1193
			2203	1194
			2204	1195
			2204	1196
			2205	1197
			2205	1198
			2205	1199
			2205	1200
			2206	1201
			2206	1202
			2206	1203
			2207	1204
			2207	1205
			2207	1206
			2207	1207
			2208	1207
			2208	1208
			2208	1209
			2208	1210
			2208	1211
			2209	1211
			2209	1212
			2209	1213
		</Outline3>
		<Outline4 type=matrix rownames=FALSE colnames=FALSE nrow=125 ncol=2 as.numeric=TRUE >
			2209	1213
			2209	1214
			2210	1215
			2210	1216
			2210	1217
			2210	1218
			2210	1219
			2211	1220
			2211	1221
			2211	1222
			2211	1223
			2211	1224
			2212	1225
			2212	1226
			2212	1227
			2212	1228
			2212	1229
			2212	1230
			2212	1231
			2212	1232
			2212	1233
			2212	1234
			2212	1235
			2212	1236
			2212	1237
			2212	1238
			2212	1239
			2212	1240
			2212	1241
			2212	1242
			2212	1243
			2212	1244
			2212	1245
			2212	1246
			2212	1247
			2212	1248
			2211	1249
			2211	1250
			2211	1251
			2211	1252
			2210	1253
			2210	1254
			2209	1255
			2209	1256
			2209	1257
			2208	1258
			2208	1259
			2207	1260
			2207	1261
			2206	1262
			2205	1263
			2204	1264
			2203	1265
			2202	1266
			2202	1267
			2201	1268
			2200	1268
			2200	1269
			2199	1270
			2198	1270
			2198	1271
			2197	1272
			2196	1273
			2195	1274
			2194	1275
			2193	1276
			2192	1277
			2191	1278
			2190	1279
			2189	1280
			2188	1281
			2187	1281
			2186	1282
			2185	1282
			2184	1283
			2183	1283
			2182	1284
			2181	1284
			2180	1285
			2179	1285
			2178	1285
			2177	1285
			2176	1286
			2175	1286
			2174	1286
			2173	1286
			2172	1286
			2171	1286
			2170	1285
			2169	1285
			2168	1285
			2167	1285
			2166	1285
			2165	1285
			2164	1285
			2163	1285
			2162	1284
			2161	1284
			2160	1284
			2159	1284
			2158	1284
			2157	1284
			2156	1284
			2155	1285
			2154	1285
			2153	1286
			2152	1286
			2151	1286
			2151	1287
			2150	1287
			2149	1288
			2148	1289
			2148	1290
			2147	1290
			2146	1291
			2146	1292
			2145	1293
			2144	1294
			2144	1295
			2143	1296
			2142	1297
			2141	1298
			2140	1299
			2140	1300
			2139	1301
		</Outline4>
	</curves.pixel>
	<curves.scaled type=list>
		<Outline1 type=matrix rownames=FALSE colnames=FALSE nrow=145 ncol=2 as.numeric=TRUE >
			30.9546188542029	-18.8274703736877
			30.9401473166367	-18.8419419112539
			30.9256757790704	-18.8564134488202
			30.9112042415042	-18.8708849863864
			30.8967327039379	-18.8853565239527
			30.8822611663717	-18.8998280615189
			30.8677896288054	-18.9142995990852
			30.8533180912392	-18.9142995990852
			30.8388465536729	-18.9287711366514
			30.8243750161067	-18.9432426742177
			30.8099034785404	-18.9577142117839
			30.7954319409742	-18.9577142117839
			30.7809604034079	-18.9721857493502
			30.7664888658417	-18.9866572869164
			30.7520173282754	-18.9866572869164
			30.7375457907092	-19.0011288244827
			30.723074253143	-19.0156003620489
			30.7086027155767	-19.0156003620489
			30.6941311780105	-19.0300718996152
			30.6796596404442	-19.0300718996152
			30.665188102878	-19.0445434371814
			30.6507165653117	-19.0445434371814
			30.6362450277455	-19.0445434371814
			30.6217734901792	-19.0590149747477
			30.607301952613	-19.0590149747477
			30.5928304150467	-19.0734865123139
			30.5783588774805	-19.0734865123139
			30.5638873399142	-19.0734865123139
			30.549415802348	-19.0879580498802
			30.5349442647817	-19.0879580498802
			30.5204727272155	-19.0879580498802
			30.5060011896492	-19.0879580498802
			30.491529652083	-19.1024295874464
			30.4770581145168	-19.1024295874464
			30.4625865769505	-19.1024295874464
			30.4481150393843	-19.1024295874464
			30.433643501818	-19.1024295874464
			30.4191719642518	-19.1169011250126
			30.4047004266855	-19.1169011250126
			30.3902288891193	-19.1169011250126
			30.375757351553	-19.1169011250126
			30.3612858139868	-19.1169011250126
			30.3468142764205	-19.1169011250126
			30.3323427388543	-19.1169011250126
			30.317871201288	-19.1169011250126
			30.3033996637218	-19.1169011250126
			30.2889281261555	-19.1169011250126
			30.2744565885893	-19.1169011250126
			30.259985051023	-19.1024295874464
			30.2455135134568	-19.1024295874464
			30.2310419758905	-19.1024295874464
			30.2165704383243	-19.0879580498802
			30.2020989007581	-19.0879580498802
			30.1876273631918	-19.0879580498802
			30.1731558256256	-19.0734865123139
			30.1586842880593	-19.0734865123139
			30.1442127504931	-19.0734865123139
			30.1297412129268	-19.0734865123139
			30.1152696753606	-19.0590149747477
			30.1007981377943	-19.0590149747477
			30.0863266002281	-19.0445434371814
			30.0718550626618	-19.0445434371814
			30.0573835250956	-19.0445434371814
			30.0429119875293	-19.0300718996152
			30.0284404499631	-19.0300718996152
			30.0139689123968	-19.0300718996152
			29.9994973748306	-19.0156003620489
			29.9850258372643	-19.0011288244827
			29.9705542996981	-19.0011288244827
			29.9560827621318	-18.9866572869164
			29.9416112245656	-18.9866572869164
			29.9271396869994	-18.9721857493502
			29.9126681494331	-18.9721857493502
			29.8981966118669	-18.9577142117839
			29.8837250743006	-18.9577142117839
			29.8692535367344	-18.9432426742177
			29.8547819991681	-18.9287711366514
			29.8403104616019	-18.9142995990852
			29.8258389240356	-18.8998280615189
			29.8113673864694	-18.8853565239527
			29.7968958489031	-18.8853565239527
			29.7824243113369	-18.8708849863864
			29.7824243113369	-18.8564134488202
			29.7679527737706	-18.8419419112539
			29.7534812362044	-18.8274703736877
			29.7534812362044	-18.8129988361215
			29.7390096986381	-18.7985272985552
			29.7245381610719	-18.784055760989
			29.7245381610719	-18.7695842234227
			29.7100666235056	-18.7551126858565
			29.6955950859394	-18.7406411482902
			29.6955950859394	-18.726169610724
			29.6811235483732	-18.7116980731577
			29.6811235483732	-18.6972265355915
			29.6666520108069	-18.6827549980252
			29.6666520108069	-18.668283460459
			29.6666520108069	-18.6538119228927
			29.6521804732407	-18.6393403853265
			29.6377089356744	-18.6248688477602
			29.6377089356744	-18.610397310194
			29.6232373981082	-18.5959257726277
			29.6232373981082	-18.5814542350615
			29.6232373981082	-18.5669826974952
			29.6232373981082	-18.552511159929
			29.6087658605419	-18.552511159929
			29.6087658605419	-18.5380396223628
			29.6087658605419	-18.5235680847965
			29.6087658605419	-18.5090965472303
			29.6087658605419	-18.494625009664
			29.6087658605419	-18.4801534720978
			29.6087658605419	-18.4656819345315
			29.6087658605419	-18.4512103969653
			29.6087658605419	-18.436738859399
			29.6087658605419	-18.4222673218328
			29.6087658605419	-18.4077957842665
			29.6087658605419	-18.3933242467003
			29.6087658605419	-18.378852709134
			29.6087658605419	-18.3643811715678
			29.6087658605419	-18.3499096340015
			29.6087658605419	-18.3354380964353
			29.6087658605419	-18.320966558869
			29.6087658605419	-18.3064950213028
			29.6087658605419	-18.2920234837365
			29.6087658605419	-18.2775519461703
			29.6087658605419	-18.2630804086041
			29.6087658605419	-18.2486088710378
			29.6087658605419	-18.2341373334716
			29.6087658605419	-18.2196657959053
			29.6087658605419	-18.2051942583391
			29.5942943229757	-18.2051942583391
			29.5942943229757	-18.1907227207728
			29.5942943229757	-18.1762511832066
			29.5942943229757	-18.1617796456403
			29.5942943229757	-18.1473081080741
			29.5942943229757	-18.1328365705078
			29.5942943229757	-18.1183650329416
			29.5942943229757	-18.1038934953753
			29.5798227854094	-18.0894219578091
			29.5798227854094	-18.0749504202428
			29.5798227854094	-18.0604788826766
			29.5798227854094	-18.0460073451103
			29.5798227854094	-18.0315358075441
			29.5798227854094	-18.0170642699779
			29.5798227854094	-18.0025927324116
			29.5798227854094	-17.9881211948454
		</Outline1>
		<Outline2 type=matrix rownames=FALSE colnames=FALSE nrow=131 ncol=2 as.numeric=TRUE >
			29.5798227854094	-17.9881211948454
			29.5798227854094	-17.9736496572791
			29.5798227854094	-17.9591781197129
			29.5798227854094	-17.9447065821466
			29.5798227854094	-17.9302350445804
			29.5798227854094	-17.9157635070141
			29.5798227854094	-17.9012919694479
			29.5798227854094	-17.8868204318816
			29.5798227854094	-17.8723488943154
			29.5798227854094	-17.8578773567491
			29.5798227854094	-17.8434058191829
			29.5798227854094	-17.8289342816166
			29.5798227854094	-17.8144627440504
			29.5798227854094	-17.7999912064841
			29.5798227854094	-17.7855196689179
			29.5798227854094	-17.7710481313516
			29.5798227854094	-17.7565765937854
			29.5798227854094	-17.7421050562192
			29.5798227854094	-17.7276335186529
			29.5798227854094	-17.7131619810867
			29.5942943229757	-17.6986904435204
			29.5942943229757	-17.6842189059542
			29.5942943229757	-17.6697473683879
			29.5942943229757	-17.6552758308217
			29.5942943229757	-17.6408042932554
			29.6087658605419	-17.6263327556892
			29.6087658605419	-17.6118612181229
			29.6087658605419	-17.5973896805567
			29.6087658605419	-17.5829181429904
			29.6087658605419	-17.5684466054242
			29.6232373981082	-17.5539750678579
			29.6232373981082	-17.5395035302917
			29.6232373981082	-17.5250319927254
			29.6232373981082	-17.5105604551592
			29.6232373981082	-17.4960889175929
			29.6232373981082	-17.4816173800267
			29.6377089356744	-17.4671458424605
			29.6377089356744	-17.4526743048942
			29.6377089356744	-17.438202767328
			29.6377089356744	-17.4237312297617
			29.6521804732407	-17.4092596921955
			29.6521804732407	-17.3947881546292
			29.6521804732407	-17.380316617063
			29.6521804732407	-17.3658450794967
			29.6521804732407	-17.3513735419305
			29.6666520108069	-17.3369020043642
			29.6666520108069	-17.322430466798
			29.6666520108069	-17.3079589292317
			29.6666520108069	-17.2934873916655
			29.6666520108069	-17.2790158540992
			29.6811235483732	-17.264544316533
			29.6811235483732	-17.2500727789667
			29.6811235483732	-17.2356012414005
			29.6811235483732	-17.2211297038343
			29.6955950859394	-17.206658166268
			29.6955950859394	-17.1921866287018
			29.6955950859394	-17.1777150911355
			29.6955950859394	-17.1632435535693
			29.7100666235056	-17.148772016003
			29.7100666235056	-17.1343004784368
			29.7100666235056	-17.1198289408705
			29.7100666235056	-17.1053574033043
			29.7245381610719	-17.090885865738
			29.7245381610719	-17.0764143281718
			29.7245381610719	-17.0619427906055
			29.7245381610719	-17.0474712530393
			29.7390096986381	-17.0474712530393
			29.7390096986381	-17.032999715473
			29.7390096986381	-17.0185281779068
			29.7390096986381	-17.0040566403405
			29.7534812362044	-17.0040566403405
			29.7534812362044	-16.9895851027743
			29.7534812362044	-16.975113565208
			29.7534812362044	-16.9606420276418
			29.7679527737706	-16.9461704900756
			29.7679527737706	-16.9316989525093
			29.7824243113369	-16.9172274149431
			29.7824243113369	-16.9027558773768
			29.7968958489031	-16.8882843398106
			29.8113673864694	-16.8738128022443
			29.8258389240356	-16.8593412646781
			29.8403104616019	-16.8448697271118
			29.8547819991681	-16.8303981895456
			29.8692535367344	-16.8159266519793
			29.8837250743006	-16.8014551144131
			29.8981966118669	-16.7869835768468
			29.9126681494331	-16.7869835768468
			29.9271396869994	-16.7725120392806
			29.9416112245656	-16.7580405017143
			29.9560827621318	-16.7435689641481
			29.9705542996981	-16.7435689641481
			29.9850258372643	-16.7290974265818
			29.9994973748306	-16.7290974265818
			30.0139689123968	-16.7146258890156
			30.0284404499631	-16.7146258890156
			30.0429119875293	-16.7146258890156
			30.0573835250956	-16.7001543514493
			30.0718550626618	-16.7001543514493
			30.0863266002281	-16.6856828138831
			30.1007981377943	-16.6856828138831
			30.1152696753606	-16.6856828138831
			30.1297412129268	-16.6856828138831
			30.1442127504931	-16.6712112763169
			30.1586842880593	-16.6712112763169
			30.1731558256256	-16.6712112763169
			30.1876273631918	-16.6712112763169
			30.2020989007581	-16.6712112763169
			30.2165704383243	-16.6712112763169
			30.2310419758905	-16.6712112763169
			30.2455135134568	-16.6712112763169
			30.259985051023	-16.6567397387506
			30.2744565885893	-16.6567397387506
			30.2889281261555	-16.6567397387506
			30.3033996637218	-16.6567397387506
			30.317871201288	-16.6567397387506
			30.3323427388543	-16.6567397387506
			30.3468142764205	-16.6567397387506
			30.3612858139868	-16.6567397387506
			30.375757351553	-16.6567397387506
			30.3902288891193	-16.6567397387506
			30.4047004266855	-16.6567397387506
			30.4191719642518	-16.6567397387506
			30.433643501818	-16.6567397387506
			30.4481150393843	-16.6567397387506
			30.4625865769505	-16.6567397387506
			30.4770581145168	-16.6567397387506
			30.491529652083	-16.6567397387506
			30.5060011896492	-16.6567397387506
			30.5204727272155	-16.6567397387506
			30.5349442647817	-16.6567397387506
			30.549415802348	-16.6567397387506
		</Outline2>
		<Outline3 type=matrix rownames=FALSE colnames=FALSE nrow=124 ncol=2 as.numeric=TRUE >
			30.549415802348	-16.6567397387506
			30.5638873399142	-16.6567397387506
			30.5783588774805	-16.6567397387506
			30.5928304150467	-16.6567397387506
			30.607301952613	-16.6567397387506
			30.6217734901792	-16.6567397387506
			30.6362450277455	-16.6567397387506
			30.6507165653117	-16.6712112763169
			30.665188102878	-16.6712112763169
			30.6796596404442	-16.6712112763169
			30.6941311780105	-16.6712112763169
			30.7086027155767	-16.6712112763169
			30.723074253143	-16.6712112763169
			30.7375457907092	-16.6712112763169
			30.7520173282754	-16.6712112763169
			30.7664888658417	-16.6712112763169
			30.7809604034079	-16.6712112763169
			30.7954319409742	-16.6712112763169
			30.8099034785404	-16.6712112763169
			30.8243750161067	-16.6712112763169
			30.8388465536729	-16.6712112763169
			30.8533180912392	-16.6712112763169
			30.8677896288054	-16.6712112763169
			30.8822611663717	-16.6712112763169
			30.8967327039379	-16.6712112763169
			30.9112042415042	-16.6856828138831
			30.9256757790704	-16.6856828138831
			30.9401473166367	-16.6856828138831
			30.9546188542029	-16.6856828138831
			30.9690903917692	-16.6856828138831
			30.9835619293354	-16.7001543514493
			30.9980334669017	-16.7001543514493
			31.0125050044679	-16.7001543514493
			31.0269765420341	-16.7001543514493
			31.0414480796004	-16.7001543514493
			31.0559196171666	-16.7146258890156
			31.0703911547329	-16.7146258890156
			31.0848626922991	-16.7146258890156
			31.0993342298654	-16.7146258890156
			31.1138057674316	-16.7290974265818
			31.1282773049979	-16.7290974265818
			31.1427488425641	-16.7290974265818
			31.1572203801304	-16.7290974265818
			31.1716919176966	-16.7435689641481
			31.1861634552629	-16.7435689641481
			31.2006349928291	-16.7435689641481
			31.2151065303954	-16.7435689641481
			31.2151065303954	-16.7580405017143
			31.2295780679616	-16.7580405017143
			31.2440496055279	-16.7580405017143
			31.2585211430941	-16.7725120392806
			31.2729926806604	-16.7725120392806
			31.2874642182266	-16.7725120392806
			31.3019357557928	-16.7869835768468
			31.3164072933591	-16.7869835768468
			31.3308788309253	-16.7869835768468
			31.3453503684916	-16.8014551144131
			31.3598219060578	-16.8159266519793
			31.3742934436241	-16.8159266519793
			31.3887649811903	-16.8159266519793
			31.4032365187566	-16.8303981895456
			31.4177080563228	-16.8303981895456
			31.4321795938891	-16.8448697271118
			31.4466511314553	-16.8593412646781
			31.4611226690216	-16.8593412646781
			31.4755942065878	-16.8593412646781
			31.4900657441541	-16.8738128022443
			31.5045372817203	-16.8738128022443
			31.5190088192866	-16.8882843398106
			31.5334803568528	-16.8882843398106
			31.5479518944191	-16.9027558773768
			31.5624234319853	-16.9027558773768
			31.5624234319853	-16.9172274149431
			31.5768949695515	-16.9172274149431
			31.5913665071178	-16.9316989525093
			31.605838044684	-16.9316989525093
			31.6203095822503	-16.9461704900756
			31.6347811198165	-16.9461704900756
			31.6347811198165	-16.9606420276418
			31.6492526573828	-16.9606420276418
			31.663724194949	-16.975113565208
			31.6781957325153	-16.9895851027743
			31.6926672700815	-17.0040566403405
			31.7071388076478	-17.0185281779068
			31.721610345214	-17.032999715473
			31.7360818827803	-17.0474712530393
			31.7505534203465	-17.0619427906055
			31.7505534203465	-17.0764143281718
			31.7650249579128	-17.090885865738
			31.779496495479	-17.1053574033043
			31.779496495479	-17.1198289408705
			31.7939680330453	-17.1198289408705
			31.8084395706115	-17.1343004784368
			31.8084395706115	-17.148772016003
			31.8229111081777	-17.1632435535693
			31.8229111081777	-17.1777150911355
			31.837382645744	-17.1921866287018
			31.837382645744	-17.206658166268
			31.8518541833102	-17.2211297038343
			31.8663257208765	-17.2356012414005
			31.8663257208765	-17.2500727789667
			31.8807972584427	-17.264544316533
			31.8807972584427	-17.2790158540992
			31.895268796009	-17.2934873916655
			31.895268796009	-17.3079589292317
			31.9097403335752	-17.322430466798
			31.9097403335752	-17.3369020043642
			31.9097403335752	-17.3513735419305
			31.9097403335752	-17.3658450794967
			31.9242118711415	-17.380316617063
			31.9242118711415	-17.3947881546292
			31.9242118711415	-17.4092596921955
			31.9386834087077	-17.4237312297617
			31.9386834087077	-17.438202767328
			31.9386834087077	-17.4526743048942
			31.9386834087077	-17.4671458424605
			31.953154946274	-17.4671458424605
			31.953154946274	-17.4816173800267
			31.953154946274	-17.4960889175929
			31.953154946274	-17.5105604551592
			31.953154946274	-17.5250319927254
			31.9676264838402	-17.5250319927254
			31.9676264838402	-17.5395035302917
			31.9676264838402	-17.5539750678579
		</Outline3>
		<Outline4 type=matrix rownames=FALSE colnames=FALSE nrow=125 ncol=2 as.numeric=TRUE >
			31.9676264838402	-17.5539750678579
			31.9676264838402	-17.5684466054242
			31.9820980214065	-17.5829181429904
			31.9820980214065	-17.5973896805567
			31.9820980214065	-17.6118612181229
			31.9820980214065	-17.6263327556892
			31.9820980214065	-17.6408042932554
			31.9965695589727	-17.6552758308217
			31.9965695589727	-17.6697473683879
			31.9965695589727	-17.6842189059542
			31.9965695589727	-17.6986904435204
			31.9965695589727	-17.7131619810867
			32.011041096539	-17.7276335186529
			32.011041096539	-17.7421050562192
			32.011041096539	-17.7565765937854
			32.011041096539	-17.7710481313516
			32.011041096539	-17.7855196689179
			32.011041096539	-17.7999912064841
			32.011041096539	-17.8144627440504
			32.011041096539	-17.8289342816166
			32.011041096539	-17.8434058191829
			32.011041096539	-17.8578773567491
			32.011041096539	-17.8723488943154
			32.011041096539	-17.8868204318816
			32.011041096539	-17.9012919694479
			32.011041096539	-17.9157635070141
			32.011041096539	-17.9302350445804
			32.011041096539	-17.9447065821466
			32.011041096539	-17.9591781197129
			32.011041096539	-17.9736496572791
			32.011041096539	-17.9881211948454
			32.011041096539	-18.0025927324116
			32.011041096539	-18.0170642699779
			32.011041096539	-18.0315358075441
			32.011041096539	-18.0460073451103
			32.011041096539	-18.0604788826766
			31.9965695589727	-18.0749504202428
			31.9965695589727	-18.0894219578091
			31.9965695589727	-18.1038934953753
			31.9965695589727	-18.1183650329416
			31.9820980214065	-18.1328365705078
			31.9820980214065	-18.1473081080741
			31.9676264838402	-18.1617796456403
			31.9676264838402	-18.1762511832066
			31.9676264838402	-18.1907227207728
			31.953154946274	-18.2051942583391
			31.953154946274	-18.2196657959053
			31.9386834087077	-18.2341373334716
			31.9386834087077	-18.2486088710378
			31.9242118711415	-18.2630804086041
			31.9097403335752	-18.2775519461703
			31.895268796009	-18.2920234837365
			31.8807972584427	-18.3064950213028
			31.8663257208765	-18.320966558869
			31.8663257208765	-18.3354380964353
			31.8518541833102	-18.3499096340015
			31.837382645744	-18.3499096340015
			31.837382645744	-18.3643811715678
			31.8229111081777	-18.378852709134
			31.8084395706115	-18.378852709134
			31.8084395706115	-18.3933242467003
			31.7939680330453	-18.4077957842665
			31.779496495479	-18.4222673218328
			31.7650249579128	-18.436738859399
			31.7505534203465	-18.4512103969653
			31.7360818827803	-18.4656819345315
			31.721610345214	-18.4801534720978
			31.7071388076478	-18.494625009664
			31.6926672700815	-18.5090965472303
			31.6781957325153	-18.5235680847965
			31.663724194949	-18.5380396223628
			31.6492526573828	-18.5380396223628
			31.6347811198165	-18.552511159929
			31.6203095822503	-18.552511159929
			31.605838044684	-18.5669826974952
			31.5913665071178	-18.5669826974952
			31.5768949695515	-18.5814542350615
			31.5624234319853	-18.5814542350615
			31.5479518944191	-18.5959257726277
			31.5334803568528	-18.5959257726277
			31.5190088192866	-18.5959257726277
			31.5045372817203	-18.5959257726277
			31.4900657441541	-18.610397310194
			31.4755942065878	-18.610397310194
			31.4611226690216	-18.610397310194
			31.4466511314553	-18.610397310194
			31.4321795938891	-18.610397310194
			31.4177080563228	-18.610397310194
			31.4032365187566	-18.5959257726277
			31.3887649811903	-18.5959257726277
			31.3742934436241	-18.5959257726277
			31.3598219060578	-18.5959257726277
			31.3453503684916	-18.5959257726277
			31.3308788309253	-18.5959257726277
			31.3164072933591	-18.5959257726277
			31.3019357557928	-18.5959257726277
			31.2874642182266	-18.5814542350615
			31.2729926806604	-18.5814542350615
			31.2585211430941	-18.5814542350615
			31.2440496055279	-18.5814542350615
			31.2295780679616	-18.5814542350615
			31.2151065303954	-18.5814542350615
			31.2006349928291	-18.5814542350615
			31.1861634552629	-18.5959257726277
			31.1716919176966	-18.5959257726277
			31.1572203801304	-18.610397310194
			31.1427488425641	-18.610397310194
			31.1282773049979	-18.610397310194
			31.1282773049979	-18.6248688477602
			31.1138057674316	-18.6248688477602
			31.0993342298654	-18.6393403853265
			31.0848626922991	-18.6538119228927
			31.0848626922991	-18.668283460459
			31.0703911547329	-18.668283460459
			31.0559196171666	-18.6827549980252
			31.0559196171666	-18.6972265355915
			31.0414480796004	-18.7116980731577
			31.0269765420341	-18.726169610724
			31.0269765420341	-18.7406411482902
			31.0125050044679	-18.7551126858565
			30.9980334669017	-18.7695842234227
			30.9835619293354	-18.784055760989
			30.9690903917692	-18.7985272985552
			30.9690903917692	-18.8129988361215
			30.9546188542029	-18.8274703736877
		</Outline4>
	</curves.scaled>
	<ruler.points type=matrix rownames=TRUE colnames=FALSE nrow=2 ncol=2 as.numeric=TRUE >
		Ruler point 1	2613	2456
		Ruler point 2	1922	2452
	</ruler.points>
</shapes>

