<shapes type=list>
	<ruler.pixel type=vector names=FALSE length=1 as.numeric=TRUE >691.162788350183</ruler.pixel>
	<ruler.interval type=vector names=FALSE length=1 as.numeric=TRUE >10</ruler.interval>
	<scaling.units type=vector names=FALSE length=1 as.numeric=FALSE >mm</scaling.units>
	<scaling type=vector names=FALSE length=1 as.numeric=TRUE >0.0144683715161665</scaling>
	<landmarks.pixel type=matrix rownames=TRUE colnames=FALSE nrow=4 ncol=2 as.numeric=TRUE >
		Labial	2764	1726
		Posterior	2652	1681
		Lingual	2715	1575
		Anterior	2828	1624
	</landmarks.pixel>
	<landmarks.scaled type=matrix rownames=TRUE colnames=FALSE nrow=4 ncol=2 as.numeric=TRUE >
		Labial	39.9905788706842	-24.9724092369034
		Posterior	38.3701212608735	-24.3213325186759
		Lingual	39.281628666392	-22.7876851379622
		Anterior	40.9165546477188	-23.4966353422544
	</landmarks.scaled>
	<curves.control type=list>
		<Outline1 type=matrix rownames=FALSE colnames=FALSE nrow=17 ncol=2 as.numeric=TRUE >
			2764	1726
			2759	1731
			2753	1737
			2746	1743
			2736	1749
			2727	1754
			2719	1757
			2711	1758
			2701	1758
			2693	1756
			2684	1752
			2676	1748
			2670	1741
			2665	1734
			2663	1726
			2658	1702
			2652	1681
		</Outline1>
		<Outline2 type=matrix rownames=FALSE colnames=FALSE nrow=13 ncol=2 as.numeric=TRUE >
			2652	1681
			2647	1663
			2647	1645
			2652	1627
			2660	1611
			2669	1600
			2675	1591
			2681	1585
			2687	1581
			2693	1577
			2700	1576
			2707	1575
			2715	1575
		</Outline2>
		<Outline3 type=matrix rownames=FALSE colnames=FALSE nrow=15 ncol=2 as.numeric=TRUE >
			2715	1575
			2725	1575
			2736	1576
			2747	1577
			2758	1579
			2769	1580
			2777	1581
			2786	1583
			2793	1586
			2798	1589
			2805	1594
			2812	1600
			2817	1606
			2822	1614
			2828	1624
		</Outline3>
		<Outline4 type=matrix rownames=FALSE colnames=FALSE nrow=19 ncol=2 as.numeric=TRUE >
			2828	1624
			2832	1633
			2835	1642
			2837	1652
			2837	1661
			2837	1669
			2835	1679
			2830	1688
			2824	1696
			2818	1703
			2811	1709
			2805	1713
			2797	1715
			2789	1717
			2782	1718
			2776	1720
			2771	1721
			2767	1722
			2764	1726
		</Outline4>
	</curves.control>
	<curves.pixel type=list>
		<Outline1 type=matrix rownames=FALSE colnames=FALSE nrow=158 ncol=2 as.numeric=TRUE >
			2764	1726
			2763	1727
			2762	1728
			2761	1729
			2760	1730
			2759	1731
			2758	1732
			2757	1733
			2756	1734
			2755	1735
			2754	1736
			2753	1737
			2752	1738
			2751	1739
			2750	1739
			2749	1740
			2749	1741
			2748	1741
			2747	1742
			2746	1743
			2745	1743
			2744	1744
			2743	1745
			2742	1745
			2741	1746
			2740	1747
			2739	1747
			2738	1748
			2737	1749
			2736	1749
			2735	1750
			2734	1750
			2733	1751
			2732	1751
			2731	1752
			2730	1752
			2729	1753
			2728	1753
			2727	1754
			2726	1754
			2725	1755
			2724	1755
			2723	1755
			2722	1756
			2721	1756
			2720	1756
			2719	1757
			2718	1757
			2717	1757
			2716	1757
			2715	1757
			2714	1757
			2714	1758
			2713	1758
			2712	1758
			2711	1758
			2710	1758
			2709	1758
			2708	1758
			2707	1758
			2706	1758
			2705	1758
			2704	1758
			2703	1758
			2702	1758
			2701	1758
			2700	1758
			2699	1757
			2698	1757
			2697	1757
			2696	1757
			2695	1756
			2694	1756
			2693	1756
			2692	1755
			2691	1755
			2690	1755
			2689	1754
			2688	1754
			2687	1753
			2686	1753
			2685	1752
			2684	1752
			2683	1752
			2682	1751
			2681	1751
			2680	1750
			2680	1749
			2679	1749
			2678	1748
			2677	1748
			2676	1747
			2675	1746
			2674	1745
			2673	1744
			2672	1743
			2671	1742
			2670	1741
			2670	1740
			2669	1739
			2668	1738
			2668	1737
			2667	1736
			2667	1735
			2666	1734
			2666	1733
			2665	1732
			2665	1731
			2664	1730
			2664	1729
			2664	1728
			2663	1727
			2663	1726
			2663	1725
			2663	1724
			2662	1723
			2662	1722
			2662	1721
			2662	1720
			2661	1719
			2661	1718
			2661	1717
			2661	1716
			2661	1715
			2660	1714
			2660	1713
			2660	1712
			2660	1711
			2659	1710
			2659	1709
			2659	1708
			2659	1707
			2659	1706
			2658	1705
			2658	1704
			2658	1703
			2658	1702
			2657	1701
			2657	1700
			2657	1699
			2657	1698
			2656	1697
			2656	1696
			2656	1695
			2656	1694
			2655	1693
			2655	1692
			2655	1691
			2654	1690
			2654	1689
			2654	1688
			2654	1687
			2653	1686
			2653	1685
			2653	1684
			2653	1683
			2652	1682
			2652	1681
		</Outline1>
		<Outline2 type=matrix rownames=FALSE colnames=FALSE nrow=133 ncol=2 as.numeric=TRUE >
			2652	1681
			2652	1680
			2652	1679
			2651	1678
			2651	1677
			2651	1676
			2650	1675
			2650	1674
			2650	1673
			2650	1672
			2650	1671
			2649	1670
			2649	1669
			2649	1668
			2649	1667
			2649	1666
			2649	1665
			2648	1664
			2648	1663
			2648	1662
			2648	1661
			2648	1660
			2648	1659
			2648	1658
			2648	1657
			2648	1656
			2647	1655
			2647	1654
			2647	1653
			2647	1652
			2647	1651
			2647	1650
			2647	1649
			2647	1648
			2647	1647
			2647	1646
			2647	1645
			2647	1644
			2648	1643
			2648	1642
			2648	1641
			2648	1640
			2649	1639
			2649	1638
			2649	1637
			2650	1636
			2650	1635
			2650	1634
			2651	1633
			2651	1632
			2651	1631
			2652	1631
			2652	1630
			2652	1629
			2653	1628
			2653	1627
			2653	1626
			2654	1625
			2654	1624
			2654	1623
			2655	1622
			2655	1621
			2656	1620
			2656	1619
			2657	1618
			2657	1617
			2658	1616
			2658	1615
			2659	1614
			2659	1613
			2660	1612
			2660	1611
			2661	1610
			2662	1609
			2662	1608
			2663	1607
			2664	1606
			2665	1605
			2665	1604
			2666	1603
			2667	1602
			2668	1601
			2668	1600
			2669	1599
			2670	1598
			2671	1597
			2672	1596
			2673	1595
			2673	1594
			2673	1593
			2674	1593
			2674	1592
			2675	1591
			2676	1590
			2677	1589
			2678	1588
			2679	1587
			2680	1586
			2681	1585
			2682	1585
			2683	1584
			2684	1583
			2685	1582
			2686	1582
			2687	1581
			2688	1580
			2689	1580
			2690	1579
			2691	1579
			2692	1578
			2693	1578
			2694	1577
			2695	1577
			2696	1577
			2697	1577
			2698	1576
			2699	1576
			2700	1576
			2701	1576
			2702	1576
			2703	1576
			2704	1575
			2705	1575
			2706	1575
			2707	1575
			2708	1575
			2709	1575
			2710	1575
			2711	1575
			2712	1575
			2713	1575
			2714	1575
			2715	1575
		</Outline2>
		<Outline3 type=matrix rownames=FALSE colnames=FALSE nrow=128 ncol=2 as.numeric=TRUE >
			2715	1575
			2716	1575
			2717	1575
			2718	1575
			2719	1575
			2720	1575
			2721	1575
			2722	1575
			2723	1575
			2724	1575
			2725	1575
			2726	1575
			2727	1575
			2728	1575
			2729	1575
			2730	1575
			2730	1576
			2731	1576
			2732	1576
			2733	1576
			2734	1576
			2735	1576
			2736	1576
			2737	1576
			2738	1576
			2739	1576
			2740	1576
			2741	1577
			2742	1577
			2743	1577
			2744	1577
			2745	1577
			2746	1577
			2747	1577
			2748	1577
			2749	1578
			2750	1578
			2751	1578
			2752	1578
			2753	1578
			2754	1578
			2755	1579
			2756	1579
			2757	1579
			2758	1579
			2759	1579
			2760	1579
			2761	1579
			2762	1579
			2763	1579
			2764	1580
			2765	1580
			2766	1580
			2767	1580
			2768	1580
			2769	1580
			2770	1580
			2771	1580
			2772	1580
			2773	1581
			2774	1581
			2775	1581
			2776	1581
			2777	1581
			2778	1581
			2779	1582
			2780	1582
			2781	1582
			2782	1582
			2783	1583
			2784	1583
			2785	1583
			2786	1583
			2787	1584
			2788	1584
			2789	1584
			2789	1585
			2790	1585
			2791	1585
			2792	1586
			2793	1586
			2794	1587
			2795	1587
			2796	1588
			2797	1589
			2798	1589
			2799	1590
			2800	1590
			2801	1591
			2802	1592
			2803	1593
			2804	1593
			2805	1594
			2806	1595
			2807	1596
			2808	1597
			2809	1598
			2810	1598
			2811	1599
			2811	1600
			2812	1600
			2813	1601
			2813	1602
			2814	1603
			2815	1603
			2815	1604
			2816	1605
			2817	1605
			2817	1606
			2818	1607
			2818	1608
			2819	1609
			2820	1610
			2820	1611
			2821	1612
			2821	1613
			2822	1614
			2823	1615
			2823	1616
			2824	1617
			2824	1618
			2825	1619
			2825	1620
			2826	1620
			2826	1621
			2827	1622
			2827	1623
			2828	1624
		</Outline3>
		<Outline4 type=matrix rownames=FALSE colnames=FALSE nrow=142 ncol=2 as.numeric=TRUE >
			2828	1624
			2828	1625
			2829	1626
			2829	1627
			2830	1628
			2830	1629
			2830	1630
			2831	1630
			2831	1631
			2831	1632
			2832	1632
			2832	1633
			2832	1634
			2833	1635
			2833	1636
			2833	1637
			2834	1638
			2834	1639
			2834	1640
			2835	1641
			2835	1642
			2835	1643
			2835	1644
			2836	1645
			2836	1646
			2836	1647
			2836	1648
			2836	1649
			2836	1650
			2836	1651
			2837	1652
			2837	1653
			2837	1654
			2837	1655
			2837	1656
			2837	1657
			2837	1658
			2837	1659
			2837	1660
			2837	1661
			2837	1662
			2837	1663
			2837	1664
			2837	1665
			2837	1666
			2837	1667
			2837	1668
			2837	1669
			2836	1670
			2836	1671
			2836	1672
			2836	1673
			2836	1674
			2836	1675
			2836	1676
			2835	1677
			2835	1678
			2835	1679
			2834	1680
			2834	1681
			2833	1682
			2833	1683
			2832	1684
			2832	1685
			2831	1686
			2830	1687
			2830	1688
			2829	1689
			2828	1690
			2828	1691
			2827	1691
			2827	1692
			2826	1693
			2825	1694
			2825	1695
			2824	1696
			2823	1697
			2823	1698
			2822	1698
			2821	1699
			2821	1700
			2820	1701
			2819	1701
			2819	1702
			2818	1703
			2817	1703
			2816	1704
			2816	1705
			2815	1706
			2814	1706
			2813	1707
			2813	1708
			2812	1708
			2811	1709
			2810	1709
			2810	1710
			2809	1710
			2808	1711
			2807	1711
			2806	1712
			2805	1712
			2804	1713
			2803	1713
			2802	1713
			2801	1714
			2800	1714
			2799	1714
			2798	1715
			2797	1715
			2796	1715
			2795	1715
			2794	1716
			2793	1716
			2792	1716
			2791	1716
			2790	1717
			2789	1717
			2788	1717
			2787	1717
			2786	1717
			2785	1718
			2784	1718
			2783	1718
			2782	1718
			2781	1718
			2780	1719
			2779	1719
			2778	1719
			2777	1719
			2776	1720
			2775	1720
			2774	1720
			2773	1721
			2772	1721
			2771	1721
			2770	1721
			2769	1722
			2768	1722
			2767	1723
			2766	1724
			2765	1725
			2764	1726
		</Outline4>
	</curves.pixel>
	<curves.scaled type=list>
		<Outline1 type=matrix rownames=FALSE colnames=FALSE nrow=158 ncol=2 as.numeric=TRUE >
			39.9905788706842	-24.9724092369034
			39.976110499168	-24.9868776084195
			39.9616421276519	-25.0013459799357
			39.9471737561357	-25.0158143514519
			39.9327053846195	-25.030282722968
			39.9182370131034	-25.0447510944842
			39.9037686415872	-25.0592194660004
			39.889300270071	-25.0736878375165
			39.8748318985549	-25.0881562090327
			39.8603635270387	-25.1026245805489
			39.8458951555225	-25.117092952065
			39.8314267840064	-25.1315613235812
			39.8169584124902	-25.1460296950974
			39.802490040974	-25.1604980666135
			39.7880216694579	-25.1604980666135
			39.7735532979417	-25.1749664381297
			39.7735532979417	-25.1894348096459
			39.7590849264255	-25.1894348096459
			39.7446165549094	-25.203903181162
			39.7301481833932	-25.2183715526782
			39.715679811877	-25.2183715526782
			39.7012114403609	-25.2328399241944
			39.6867430688447	-25.2473082957105
			39.6722746973285	-25.2473082957105
			39.6578063258124	-25.2617766672267
			39.6433379542962	-25.2762450387429
			39.62886958278	-25.2762450387429
			39.6144012112639	-25.290713410259
			39.5999328397477	-25.3051817817752
			39.5854644682315	-25.3051817817752
			39.5709960967154	-25.3196501532914
			39.5565277251992	-25.3196501532914
			39.542059353683	-25.3341185248075
			39.5275909821669	-25.3341185248075
			39.5131226106507	-25.3485868963237
			39.4986542391345	-25.3485868963237
			39.4841858676184	-25.3630552678399
			39.4697174961022	-25.3630552678399
			39.455249124586	-25.377523639356
			39.4407807530699	-25.377523639356
			39.4263123815537	-25.3919920108722
			39.4118440100375	-25.3919920108722
			39.3973756385214	-25.3919920108722
			39.3829072670052	-25.4064603823884
			39.368438895489	-25.4064603823884
			39.3539705239729	-25.4064603823884
			39.3395021524567	-25.4209287539045
			39.3250337809405	-25.4209287539045
			39.3105654094244	-25.4209287539045
			39.2960970379082	-25.4209287539045
			39.281628666392	-25.4209287539045
			39.2671602948759	-25.4209287539045
			39.2671602948759	-25.4353971254207
			39.2526919233597	-25.4353971254207
			39.2382235518435	-25.4353971254207
			39.2237551803274	-25.4353971254207
			39.2092868088112	-25.4353971254207
			39.194818437295	-25.4353971254207
			39.1803500657789	-25.4353971254207
			39.1658816942627	-25.4353971254207
			39.1514133227465	-25.4353971254207
			39.1369449512304	-25.4353971254207
			39.1224765797142	-25.4353971254207
			39.108008208198	-25.4353971254207
			39.0935398366819	-25.4353971254207
			39.0790714651657	-25.4353971254207
			39.0646030936495	-25.4353971254207
			39.0501347221334	-25.4209287539045
			39.0356663506172	-25.4209287539045
			39.021197979101	-25.4209287539045
			39.0067296075849	-25.4209287539045
			38.9922612360687	-25.4064603823884
			38.9777928645525	-25.4064603823884
			38.9633244930364	-25.4064603823884
			38.9488561215202	-25.3919920108722
			38.934387750004	-25.3919920108722
			38.9199193784879	-25.3919920108722
			38.9054510069717	-25.377523639356
			38.8909826354555	-25.377523639356
			38.8765142639394	-25.3630552678399
			38.8620458924232	-25.3630552678399
			38.847577520907	-25.3485868963237
			38.8331091493909	-25.3485868963237
			38.8186407778747	-25.3485868963237
			38.8041724063585	-25.3341185248075
			38.7897040348424	-25.3341185248075
			38.7752356633262	-25.3196501532914
			38.7752356633262	-25.3051817817752
			38.76076729181	-25.3051817817752
			38.7462989202939	-25.290713410259
			38.7318305487777	-25.290713410259
			38.7173621772615	-25.2762450387429
			38.7028938057454	-25.2617766672267
			38.6884254342292	-25.2473082957105
			38.673957062713	-25.2328399241944
			38.6594886911969	-25.2183715526782
			38.6450203196807	-25.203903181162
			38.6305519481645	-25.1894348096459
			38.6305519481645	-25.1749664381297
			38.6160835766484	-25.1604980666135
			38.6016152051322	-25.1460296950974
			38.6016152051322	-25.1315613235812
			38.587146833616	-25.117092952065
			38.587146833616	-25.1026245805489
			38.5726784620999	-25.0881562090327
			38.5726784620999	-25.0736878375165
			38.5582100905837	-25.0592194660004
			38.5582100905837	-25.0447510944842
			38.5437417190675	-25.030282722968
			38.5437417190675	-25.0158143514519
			38.5437417190675	-25.0013459799357
			38.5292733475514	-24.9868776084195
			38.5292733475514	-24.9724092369034
			38.5292733475514	-24.9579408653872
			38.5292733475514	-24.943472493871
			38.5148049760352	-24.9290041223549
			38.5148049760352	-24.9145357508387
			38.5148049760352	-24.9000673793225
			38.5148049760352	-24.8855990078064
			38.500336604519	-24.8711306362902
			38.500336604519	-24.856662264774
			38.500336604519	-24.8421938932579
			38.500336604519	-24.8277255217417
			38.500336604519	-24.8132571502255
			38.4858682330029	-24.7987887787094
			38.4858682330029	-24.7843204071932
			38.4858682330029	-24.769852035677
			38.4858682330029	-24.7553836641609
			38.4713998614867	-24.7409152926447
			38.4713998614867	-24.7264469211285
			38.4713998614867	-24.7119785496124
			38.4713998614867	-24.6975101780962
			38.4713998614867	-24.68304180658
			38.4569314899705	-24.6685734350639
			38.4569314899705	-24.6541050635477
			38.4569314899705	-24.6396366920315
			38.4569314899705	-24.6251683205154
			38.4424631184544	-24.6106999489992
			38.4424631184544	-24.596231577483
			38.4424631184544	-24.5817632059669
			38.4424631184544	-24.5672948344507
			38.4279947469382	-24.5528264629345
			38.4279947469382	-24.5383580914184
			38.4279947469382	-24.5238897199022
			38.4279947469382	-24.509421348386
			38.413526375422	-24.4949529768699
			38.413526375422	-24.4804846053537
			38.413526375422	-24.4660162338375
			38.3990580039059	-24.4515478623214
			38.3990580039059	-24.4370794908052
			38.3990580039059	-24.422611119289
			38.3990580039059	-24.4081427477729
			38.3845896323897	-24.3936743762567
			38.3845896323897	-24.3792060047405
			38.3845896323897	-24.3647376332244
			38.3845896323897	-24.3502692617082
			38.3701212608735	-24.335800890192
			38.3701212608735	-24.3213325186759
		</Outline1>
		<Outline2 type=matrix rownames=FALSE colnames=FALSE nrow=133 ncol=2 as.numeric=TRUE >
			38.3701212608735	-24.3213325186759
			38.3701212608735	-24.3068641471597
			38.3701212608735	-24.2923957756435
			38.3556528893574	-24.2779274041274
			38.3556528893574	-24.2634590326112
			38.3556528893574	-24.248990661095
			38.3411845178412	-24.2345222895789
			38.3411845178412	-24.2200539180627
			38.3411845178412	-24.2055855465465
			38.3411845178412	-24.1911171750304
			38.3411845178412	-24.1766488035142
			38.326716146325	-24.162180431998
			38.326716146325	-24.1477120604819
			38.326716146325	-24.1332436889657
			38.326716146325	-24.1187753174495
			38.326716146325	-24.1043069459334
			38.326716146325	-24.0898385744172
			38.3122477748089	-24.075370202901
			38.3122477748089	-24.0609018313849
			38.3122477748089	-24.0464334598687
			38.3122477748089	-24.0319650883525
			38.3122477748089	-24.0174967168364
			38.3122477748089	-24.0030283453202
			38.3122477748089	-23.988559973804
			38.3122477748089	-23.9740916022879
			38.3122477748089	-23.9596232307717
			38.2977794032927	-23.9451548592555
			38.2977794032927	-23.9306864877394
			38.2977794032927	-23.9162181162232
			38.2977794032927	-23.901749744707
			38.2977794032927	-23.8872813731909
			38.2977794032927	-23.8728130016747
			38.2977794032927	-23.8583446301585
			38.2977794032927	-23.8438762586424
			38.2977794032927	-23.8294078871262
			38.2977794032927	-23.81493951561
			38.2977794032927	-23.8004711440939
			38.2977794032927	-23.7860027725777
			38.3122477748089	-23.7715344010616
			38.3122477748089	-23.7570660295454
			38.3122477748089	-23.7425976580292
			38.3122477748089	-23.728129286513
			38.326716146325	-23.7136609149969
			38.326716146325	-23.6991925434807
			38.326716146325	-23.6847241719646
			38.3411845178412	-23.6702558004484
			38.3411845178412	-23.6557874289322
			38.3411845178412	-23.6413190574161
			38.3556528893574	-23.6268506858999
			38.3556528893574	-23.6123823143837
			38.3556528893574	-23.5979139428676
			38.3701212608735	-23.5979139428676
			38.3701212608735	-23.5834455713514
			38.3701212608735	-23.5689771998352
			38.3845896323897	-23.5545088283191
			38.3845896323897	-23.5400404568029
			38.3845896323897	-23.5255720852867
			38.3990580039059	-23.5111037137706
			38.3990580039059	-23.4966353422544
			38.3990580039059	-23.4821669707382
			38.413526375422	-23.4676985992221
			38.413526375422	-23.4532302277059
			38.4279947469382	-23.4387618561897
			38.4279947469382	-23.4242934846736
			38.4424631184544	-23.4098251131574
			38.4424631184544	-23.3953567416412
			38.4569314899705	-23.3808883701251
			38.4569314899705	-23.3664199986089
			38.4713998614867	-23.3519516270927
			38.4713998614867	-23.3374832555766
			38.4858682330029	-23.3230148840604
			38.4858682330029	-23.3085465125442
			38.500336604519	-23.2940781410281
			38.5148049760352	-23.2796097695119
			38.5148049760352	-23.2651413979957
			38.5292733475514	-23.2506730264796
			38.5437417190675	-23.2362046549634
			38.5582100905837	-23.2217362834472
			38.5582100905837	-23.2072679119311
			38.5726784620999	-23.1927995404149
			38.587146833616	-23.1783311688987
			38.6016152051322	-23.1638627973826
			38.6016152051322	-23.1493944258664
			38.6160835766484	-23.1349260543502
			38.6305519481645	-23.1204576828341
			38.6450203196807	-23.1059893113179
			38.6594886911969	-23.0915209398017
			38.673957062713	-23.0770525682856
			38.673957062713	-23.0625841967694
			38.673957062713	-23.0481158252532
			38.6884254342292	-23.0481158252532
			38.6884254342292	-23.0336474537371
			38.7028938057454	-23.0191790822209
			38.7173621772615	-23.0047107107047
			38.7318305487777	-22.9902423391886
			38.7462989202939	-22.9757739676724
			38.76076729181	-22.9613055961562
			38.7752356633262	-22.9468372246401
			38.7897040348424	-22.9323688531239
			38.8041724063585	-22.9323688531239
			38.8186407778747	-22.9179004816077
			38.8331091493909	-22.9034321100916
			38.847577520907	-22.8889637385754
			38.8620458924232	-22.8889637385754
			38.8765142639394	-22.8744953670592
			38.8909826354555	-22.8600269955431
			38.9054510069717	-22.8600269955431
			38.9199193784879	-22.8455586240269
			38.934387750004	-22.8455586240269
			38.9488561215202	-22.8310902525107
			38.9633244930364	-22.8310902525107
			38.9777928645525	-22.8166218809946
			38.9922612360687	-22.8166218809946
			39.0067296075849	-22.8166218809946
			39.021197979101	-22.8166218809946
			39.0356663506172	-22.8021535094784
			39.0501347221334	-22.8021535094784
			39.0646030936495	-22.8021535094784
			39.0790714651657	-22.8021535094784
			39.0935398366819	-22.8021535094784
			39.108008208198	-22.8021535094784
			39.1224765797142	-22.7876851379622
			39.1369449512304	-22.7876851379622
			39.1514133227465	-22.7876851379622
			39.1658816942627	-22.7876851379622
			39.1803500657789	-22.7876851379622
			39.194818437295	-22.7876851379622
			39.2092868088112	-22.7876851379622
			39.2237551803274	-22.7876851379622
			39.2382235518435	-22.7876851379622
			39.2526919233597	-22.7876851379622
			39.2671602948759	-22.7876851379622
			39.281628666392	-22.7876851379622
		</Outline2>
		<Outline3 type=matrix rownames=FALSE colnames=FALSE nrow=128 ncol=2 as.numeric=TRUE >
			39.281628666392	-22.7876851379622
			39.2960970379082	-22.7876851379622
			39.3105654094244	-22.7876851379622
			39.3250337809405	-22.7876851379622
			39.3395021524567	-22.7876851379622
			39.3539705239729	-22.7876851379622
			39.368438895489	-22.7876851379622
			39.3829072670052	-22.7876851379622
			39.3973756385214	-22.7876851379622
			39.4118440100375	-22.7876851379622
			39.4263123815537	-22.7876851379622
			39.4407807530699	-22.7876851379622
			39.455249124586	-22.7876851379622
			39.4697174961022	-22.7876851379622
			39.4841858676184	-22.7876851379622
			39.4986542391345	-22.7876851379622
			39.4986542391345	-22.8021535094784
			39.5131226106507	-22.8021535094784
			39.5275909821669	-22.8021535094784
			39.542059353683	-22.8021535094784
			39.5565277251992	-22.8021535094784
			39.5709960967154	-22.8021535094784
			39.5854644682315	-22.8021535094784
			39.5999328397477	-22.8021535094784
			39.6144012112639	-22.8021535094784
			39.62886958278	-22.8021535094784
			39.6433379542962	-22.8021535094784
			39.6578063258124	-22.8166218809946
			39.6722746973285	-22.8166218809946
			39.6867430688447	-22.8166218809946
			39.7012114403609	-22.8166218809946
			39.715679811877	-22.8166218809946
			39.7301481833932	-22.8166218809946
			39.7446165549094	-22.8166218809946
			39.7590849264255	-22.8166218809946
			39.7735532979417	-22.8310902525107
			39.7880216694579	-22.8310902525107
			39.802490040974	-22.8310902525107
			39.8169584124902	-22.8310902525107
			39.8314267840064	-22.8310902525107
			39.8458951555225	-22.8310902525107
			39.8603635270387	-22.8455586240269
			39.8748318985549	-22.8455586240269
			39.889300270071	-22.8455586240269
			39.9037686415872	-22.8455586240269
			39.9182370131034	-22.8455586240269
			39.9327053846195	-22.8455586240269
			39.9471737561357	-22.8455586240269
			39.9616421276519	-22.8455586240269
			39.976110499168	-22.8455586240269
			39.9905788706842	-22.8600269955431
			40.0050472422004	-22.8600269955431
			40.0195156137165	-22.8600269955431
			40.0339839852327	-22.8600269955431
			40.0484523567489	-22.8600269955431
			40.062920728265	-22.8600269955431
			40.0773890997812	-22.8600269955431
			40.0918574712974	-22.8600269955431
			40.1063258428135	-22.8600269955431
			40.1207942143297	-22.8744953670592
			40.1352625858459	-22.8744953670592
			40.149730957362	-22.8744953670592
			40.1641993288782	-22.8744953670592
			40.1786677003944	-22.8744953670592
			40.1931360719105	-22.8744953670592
			40.2076044434267	-22.8889637385754
			40.2220728149429	-22.8889637385754
			40.236541186459	-22.8889637385754
			40.2510095579752	-22.8889637385754
			40.2654779294914	-22.9034321100916
			40.2799463010075	-22.9034321100916
			40.2944146725237	-22.9034321100916
			40.3088830440399	-22.9034321100916
			40.323351415556	-22.9179004816077
			40.3378197870722	-22.9179004816077
			40.3522881585884	-22.9179004816077
			40.3522881585884	-22.9323688531239
			40.3667565301045	-22.9323688531239
			40.3812249016207	-22.9323688531239
			40.3956932731368	-22.9468372246401
			40.410161644653	-22.9468372246401
			40.4246300161692	-22.9613055961562
			40.4390983876853	-22.9613055961562
			40.4535667592015	-22.9757739676724
			40.4680351307177	-22.9902423391886
			40.4825035022338	-22.9902423391886
			40.49697187375	-23.0047107107047
			40.5114402452662	-23.0047107107047
			40.5259086167824	-23.0191790822209
			40.5403769882985	-23.0336474537371
			40.5548453598147	-23.0481158252532
			40.5693137313309	-23.0481158252532
			40.583782102847	-23.0625841967694
			40.5982504743632	-23.0770525682856
			40.6127188458793	-23.0915209398017
			40.6271872173955	-23.1059893113179
			40.6416555889117	-23.1204576828341
			40.6561239604278	-23.1204576828341
			40.670592331944	-23.1349260543502
			40.670592331944	-23.1493944258664
			40.6850607034602	-23.1493944258664
			40.6995290749763	-23.1638627973826
			40.6995290749763	-23.1783311688987
			40.7139974464925	-23.1927995404149
			40.7284658180087	-23.1927995404149
			40.7284658180087	-23.2072679119311
			40.7429341895248	-23.2217362834472
			40.757402561041	-23.2217362834472
			40.757402561041	-23.2362046549634
			40.7718709325572	-23.2506730264796
			40.7718709325572	-23.2651413979957
			40.7863393040733	-23.2796097695119
			40.8008076755895	-23.2940781410281
			40.8008076755895	-23.3085465125442
			40.8152760471057	-23.3230148840604
			40.8152760471057	-23.3374832555766
			40.8297444186218	-23.3519516270927
			40.844212790138	-23.3664199986089
			40.844212790138	-23.3808883701251
			40.8586811616542	-23.3953567416412
			40.8586811616542	-23.4098251131574
			40.8731495331703	-23.4242934846736
			40.8731495331703	-23.4387618561897
			40.8876179046865	-23.4387618561897
			40.8876179046865	-23.4532302277059
			40.9020862762027	-23.4676985992221
			40.9020862762027	-23.4821669707382
			40.9165546477188	-23.4966353422544
		</Outline3>
		<Outline4 type=matrix rownames=FALSE colnames=FALSE nrow=142 ncol=2 as.numeric=TRUE >
			40.9165546477188	-23.4966353422544
			40.9165546477188	-23.5111037137706
			40.931023019235	-23.5255720852867
			40.931023019235	-23.5400404568029
			40.9454913907512	-23.5545088283191
			40.9454913907512	-23.5689771998352
			40.9454913907512	-23.5834455713514
			40.9599597622673	-23.5834455713514
			40.9599597622673	-23.5979139428676
			40.9599597622673	-23.6123823143837
			40.9744281337835	-23.6123823143837
			40.9744281337835	-23.6268506858999
			40.9744281337835	-23.6413190574161
			40.9888965052997	-23.6557874289322
			40.9888965052997	-23.6702558004484
			40.9888965052997	-23.6847241719646
			41.0033648768158	-23.6991925434807
			41.0033648768158	-23.7136609149969
			41.0033648768158	-23.728129286513
			41.017833248332	-23.7425976580292
			41.017833248332	-23.7570660295454
			41.017833248332	-23.7715344010616
			41.017833248332	-23.7860027725777
			41.0323016198482	-23.8004711440939
			41.0323016198482	-23.81493951561
			41.0323016198482	-23.8294078871262
			41.0323016198482	-23.8438762586424
			41.0323016198482	-23.8583446301585
			41.0323016198482	-23.8728130016747
			41.0323016198482	-23.8872813731909
			41.0467699913643	-23.901749744707
			41.0467699913643	-23.9162181162232
			41.0467699913643	-23.9306864877394
			41.0467699913643	-23.9451548592555
			41.0467699913643	-23.9596232307717
			41.0467699913643	-23.9740916022879
			41.0467699913643	-23.988559973804
			41.0467699913643	-24.0030283453202
			41.0467699913643	-24.0174967168364
			41.0467699913643	-24.0319650883525
			41.0467699913643	-24.0464334598687
			41.0467699913643	-24.0609018313849
			41.0467699913643	-24.075370202901
			41.0467699913643	-24.0898385744172
			41.0467699913643	-24.1043069459334
			41.0467699913643	-24.1187753174495
			41.0467699913643	-24.1332436889657
			41.0467699913643	-24.1477120604819
			41.0323016198482	-24.162180431998
			41.0323016198482	-24.1766488035142
			41.0323016198482	-24.1911171750304
			41.0323016198482	-24.2055855465465
			41.0323016198482	-24.2200539180627
			41.0323016198482	-24.2345222895789
			41.0323016198482	-24.248990661095
			41.017833248332	-24.2634590326112
			41.017833248332	-24.2779274041274
			41.017833248332	-24.2923957756435
			41.0033648768158	-24.3068641471597
			41.0033648768158	-24.3213325186759
			40.9888965052997	-24.335800890192
			40.9888965052997	-24.3502692617082
			40.9744281337835	-24.3647376332244
			40.9744281337835	-24.3792060047405
			40.9599597622673	-24.3936743762567
			40.9454913907512	-24.4081427477729
			40.9454913907512	-24.422611119289
			40.931023019235	-24.4370794908052
			40.9165546477188	-24.4515478623214
			40.9165546477188	-24.4660162338375
			40.9020862762027	-24.4660162338375
			40.9020862762027	-24.4804846053537
			40.8876179046865	-24.4949529768699
			40.8731495331703	-24.509421348386
			40.8731495331703	-24.5238897199022
			40.8586811616542	-24.5383580914184
			40.844212790138	-24.5528264629345
			40.844212790138	-24.5672948344507
			40.8297444186218	-24.5672948344507
			40.8152760471057	-24.5817632059669
			40.8152760471057	-24.596231577483
			40.8008076755895	-24.6106999489992
			40.7863393040733	-24.6106999489992
			40.7863393040733	-24.6251683205154
			40.7718709325572	-24.6396366920315
			40.757402561041	-24.6396366920315
			40.7429341895248	-24.6541050635477
			40.7429341895248	-24.6685734350639
			40.7284658180087	-24.68304180658
			40.7139974464925	-24.68304180658
			40.6995290749763	-24.6975101780962
			40.6995290749763	-24.7119785496124
			40.6850607034602	-24.7119785496124
			40.670592331944	-24.7264469211285
			40.6561239604278	-24.7264469211285
			40.6561239604278	-24.7409152926447
			40.6416555889117	-24.7409152926447
			40.6271872173955	-24.7553836641609
			40.6127188458793	-24.7553836641609
			40.5982504743632	-24.769852035677
			40.583782102847	-24.769852035677
			40.5693137313309	-24.7843204071932
			40.5548453598147	-24.7843204071932
			40.5403769882985	-24.7843204071932
			40.5259086167824	-24.7987887787094
			40.5114402452662	-24.7987887787094
			40.49697187375	-24.7987887787094
			40.4825035022338	-24.8132571502255
			40.4680351307177	-24.8132571502255
			40.4535667592015	-24.8132571502255
			40.4390983876853	-24.8132571502255
			40.4246300161692	-24.8277255217417
			40.410161644653	-24.8277255217417
			40.3956932731368	-24.8277255217417
			40.3812249016207	-24.8277255217417
			40.3667565301045	-24.8421938932579
			40.3522881585884	-24.8421938932579
			40.3378197870722	-24.8421938932579
			40.323351415556	-24.8421938932579
			40.3088830440399	-24.8421938932579
			40.2944146725237	-24.856662264774
			40.2799463010075	-24.856662264774
			40.2654779294914	-24.856662264774
			40.2510095579752	-24.856662264774
			40.236541186459	-24.856662264774
			40.2220728149429	-24.8711306362902
			40.2076044434267	-24.8711306362902
			40.1931360719105	-24.8711306362902
			40.1786677003944	-24.8711306362902
			40.1641993288782	-24.8855990078064
			40.149730957362	-24.8855990078064
			40.1352625858459	-24.8855990078064
			40.1207942143297	-24.9000673793225
			40.1063258428135	-24.9000673793225
			40.0918574712974	-24.9000673793225
			40.0773890997812	-24.9000673793225
			40.062920728265	-24.9145357508387
			40.0484523567489	-24.9145357508387
			40.0339839852327	-24.9290041223549
			40.0195156137165	-24.943472493871
			40.0050472422004	-24.9579408653872
			39.9905788706842	-24.9724092369034
		</Outline4>
	</curves.scaled>
	<ruler.points type=matrix rownames=TRUE colnames=FALSE nrow=2 ncol=2 as.numeric=TRUE >
		Ruler point 1	3053	2547
		Ruler point 2	2362	2562
	</ruler.points>
</shapes>

