<shapes type=list>
	<ruler.pixel type=vector names=FALSE length=1 as.numeric=TRUE >691.650923515613</ruler.pixel>
	<ruler.interval type=vector names=FALSE length=1 as.numeric=TRUE >10</ruler.interval>
	<scaling.units type=vector names=FALSE length=1 as.numeric=FALSE >mm</scaling.units>
	<scaling type=vector names=FALSE length=1 as.numeric=TRUE >0.0144581604101253</scaling>
	<landmarks.pixel type=matrix rownames=TRUE colnames=FALSE nrow=4 ncol=2 as.numeric=TRUE >
		Labial	2136	2152
		Posterior	2050	2065
		Lingual	2143	1992
		Anterior	2233	2077
	</landmarks.pixel>
	<landmarks.scaled type=matrix rownames=TRUE colnames=FALSE nrow=4 ncol=2 as.numeric=TRUE >
		Labial	30.8826306360275	-31.1139612025895
		Posterior	29.6392288407568	-29.8561012469086
		Lingual	30.9838377588984	-28.8006555369695
		Anterior	32.2850721958097	-30.0295991718301
	</landmarks.scaled>
	<curves.control type=list>
		<Outline1 type=matrix rownames=FALSE colnames=FALSE nrow=17 ncol=2 as.numeric=TRUE >
			2136	2152
			2129	2156
			2119	2158
			2110	2159
			2099	2157
			2091	2154
			2084	2150
			2078	2145
			2072	2138
			2066	2128
			2061	2119
			2058	2111
			2056	2102
			2053	2088
			2052	2080
			2050	2072
			2050	2065
		</Outline1>
		<Outline2 type=matrix rownames=FALSE colnames=FALSE nrow=17 ncol=2 as.numeric=TRUE >
			2050	2065
			2054	2055
			2058	2045
			2063	2036
			2066	2028
			2071	2019
			2077	2011
			2081	2006
			2087	2000
			2093	1995
			2098	1991
			2106	1988
			2115	1987
			2123	1987
			2131	1988
			2136	1990
			2143	1992
		</Outline2>
		<Outline3 type=matrix rownames=FALSE colnames=FALSE nrow=17 ncol=2 as.numeric=TRUE >
			2143	1992
			2154	1996
			2165	1999
			2173	2002
			2181	2005
			2188	2009
			2196	2012
			2205	2017
			2212	2023
			2219	2029
			2224	2035
			2228	2042
			2230	2048
			2232	2055
			2233	2063
			2233	2070
			2233	2077
		</Outline3>
		<Outline4 type=matrix rownames=FALSE colnames=FALSE nrow=17 ncol=2 as.numeric=TRUE >
			2233	2077
			2232	2084
			2230	2094
			2226	2102
			2221	2110
			2216	2116
			2209	2122
			2200	2129
			2192	2133
			2184	2136
			2178	2137
			2173	2135
			2167	2137
			2159	2140
			2151	2144
			2144	2147
			2136	2152
		</Outline4>
	</curves.control>
	<curves.pixel type=list>
		<Outline1 type=matrix rownames=FALSE colnames=FALSE nrow=143 ncol=2 as.numeric=TRUE >
			2136	2152
			2135	2152
			2134	2153
			2133	2154
			2132	2154
			2131	2155
			2130	2155
			2129	2155
			2128	2156
			2127	2156
			2126	2156
			2125	2157
			2124	2157
			2123	2157
			2122	2157
			2121	2157
			2121	2158
			2120	2158
			2119	2158
			2118	2158
			2117	2158
			2116	2158
			2115	2158
			2114	2158
			2113	2158
			2112	2158
			2111	2158
			2110	2158
			2109	2158
			2108	2158
			2107	2158
			2106	2158
			2105	2158
			2104	2158
			2103	2158
			2102	2157
			2101	2157
			2100	2157
			2099	2157
			2098	2157
			2097	2156
			2096	2156
			2095	2155
			2094	2155
			2093	2155
			2092	2154
			2091	2154
			2090	2153
			2089	2153
			2088	2152
			2087	2152
			2086	2151
			2085	2150
			2084	2150
			2083	2149
			2082	2148
			2081	2148
			2081	2147
			2080	2146
			2079	2145
			2078	2145
			2077	2144
			2076	2143
			2076	2142
			2075	2141
			2074	2140
			2073	2139
			2072	2138
			2071	2137
			2071	2136
			2070	2135
			2070	2134
			2069	2133
			2069	2132
			2068	2132
			2068	2131
			2067	2130
			2067	2129
			2066	2128
			2065	2127
			2065	2126
			2064	2125
			2064	2124
			2063	2123
			2063	2122
			2062	2121
			2062	2120
			2061	2119
			2061	2118
			2060	2117
			2060	2116
			2060	2115
			2059	2114
			2059	2113
			2059	2112
			2058	2111
			2058	2110
			2058	2109
			2057	2108
			2057	2107
			2057	2106
			2057	2105
			2056	2104
			2056	2103
			2056	2102
			2056	2101
			2056	2100
			2055	2099
			2055	2098
			2055	2097
			2055	2096
			2055	2095
			2054	2095
			2054	2094
			2054	2093
			2054	2092
			2054	2091
			2054	2090
			2053	2089
			2053	2088
			2053	2087
			2053	2086
			2053	2085
			2053	2084
			2052	2083
			2052	2082
			2052	2081
			2052	2080
			2052	2079
			2051	2078
			2051	2077
			2051	2076
			2051	2075
			2051	2074
			2051	2073
			2050	2072
			2050	2071
			2050	2070
			2050	2069
			2050	2068
			2050	2067
			2050	2066
			2050	2065
		</Outline1>
		<Outline2 type=matrix rownames=FALSE colnames=FALSE nrow=127 ncol=2 as.numeric=TRUE >
			2050	2065
			2050	2064
			2051	2063
			2051	2062
			2052	2061
			2052	2060
			2052	2059
			2053	2058
			2053	2057
			2053	2056
			2054	2056
			2054	2055
			2054	2054
			2055	2053
			2055	2052
			2055	2051
			2056	2050
			2056	2049
			2057	2048
			2057	2047
			2058	2046
			2058	2045
			2059	2044
			2059	2043
			2060	2042
			2060	2041
			2061	2040
			2061	2039
			2061	2038
			2062	2038
			2062	2037
			2063	2036
			2063	2035
			2063	2034
			2064	2033
			2064	2032
			2065	2032
			2065	2031
			2065	2030
			2066	2029
			2066	2028
			2066	2027
			2067	2027
			2067	2026
			2068	2025
			2068	2024
			2069	2023
			2069	2022
			2070	2021
			2071	2020
			2071	2019
			2072	2019
			2072	2018
			2073	2017
			2073	2016
			2074	2015
			2075	2014
			2076	2013
			2076	2012
			2077	2011
			2078	2010
			2079	2009
			2080	2008
			2080	2007
			2081	2006
			2082	2005
			2083	2004
			2084	2003
			2085	2002
			2086	2001
			2087	2000
			2088	1999
			2089	1998
			2090	1997
			2091	1996
			2092	1996
			2093	1995
			2094	1994
			2095	1993
			2096	1993
			2097	1992
			2098	1991
			2099	1991
			2100	1990
			2101	1990
			2102	1990
			2103	1989
			2104	1989
			2105	1989
			2106	1988
			2107	1988
			2108	1988
			2109	1988
			2110	1988
			2111	1988
			2112	1987
			2113	1987
			2114	1987
			2115	1987
			2116	1987
			2117	1987
			2118	1987
			2119	1987
			2120	1987
			2121	1987
			2122	1987
			2123	1987
			2124	1987
			2125	1987
			2126	1987
			2127	1988
			2128	1988
			2129	1988
			2130	1988
			2131	1988
			2132	1988
			2133	1989
			2134	1989
			2135	1989
			2136	1990
			2137	1990
			2138	1991
			2139	1991
			2140	1991
			2141	1991
			2142	1992
			2143	1992
		</Outline2>
		<Outline3 type=matrix rownames=FALSE colnames=FALSE nrow=130 ncol=2 as.numeric=TRUE >
			2143	1992
			2144	1992
			2145	1993
			2146	1993
			2147	1993
			2147	1994
			2148	1994
			2149	1994
			2150	1994
			2150	1995
			2151	1995
			2152	1995
			2153	1995
			2154	1996
			2155	1996
			2156	1996
			2157	1997
			2158	1997
			2159	1997
			2160	1998
			2161	1998
			2162	1998
			2163	1999
			2164	1999
			2165	1999
			2166	1999
			2167	2000
			2168	2000
			2169	2000
			2170	2001
			2171	2001
			2172	2001
			2173	2002
			2174	2002
			2175	2003
			2176	2003
			2177	2004
			2178	2004
			2179	2004
			2180	2005
			2181	2005
			2182	2006
			2183	2006
			2184	2006
			2184	2007
			2185	2007
			2186	2008
			2187	2008
			2188	2009
			2189	2009
			2190	2010
			2191	2010
			2192	2010
			2193	2011
			2194	2011
			2195	2012
			2196	2012
			2197	2013
			2198	2013
			2199	2014
			2200	2015
			2201	2015
			2202	2016
			2203	2017
			2204	2017
			2205	2018
			2206	2019
			2207	2019
			2208	2020
			2209	2021
			2210	2022
			2211	2022
			2212	2023
			2213	2024
			2214	2025
			2215	2025
			2215	2026
			2216	2027
			2217	2028
			2218	2028
			2219	2029
			2219	2030
			2220	2031
			2221	2031
			2221	2032
			2222	2033
			2223	2034
			2224	2035
			2225	2036
			2225	2037
			2226	2038
			2226	2039
			2227	2040
			2227	2041
			2228	2042
			2228	2043
			2229	2044
			2229	2045
			2229	2046
			2230	2047
			2230	2048
			2230	2049
			2231	2050
			2231	2051
			2231	2052
			2231	2053
			2232	2054
			2232	2055
			2232	2056
			2232	2057
			2232	2058
			2232	2059
			2233	2060
			2233	2061
			2233	2062
			2233	2063
			2233	2064
			2233	2065
			2233	2066
			2233	2067
			2233	2068
			2233	2069
			2233	2070
			2233	2071
			2233	2072
			2233	2073
			2233	2074
			2233	2075
			2233	2076
			2233	2077
		</Outline3>
		<Outline4 type=matrix rownames=FALSE colnames=FALSE nrow=131 ncol=2 as.numeric=TRUE >
			2233	2077
			2233	2078
			2233	2079
			2233	2080
			2232	2081
			2232	2082
			2232	2083
			2232	2084
			2232	2085
			2232	2086
			2231	2087
			2231	2088
			2231	2089
			2231	2090
			2231	2091
			2230	2092
			2230	2093
			2230	2094
			2230	2095
			2229	2096
			2228	2097
			2228	2098
			2227	2099
			2227	2100
			2226	2101
			2226	2102
			2225	2103
			2225	2104
			2224	2105
			2223	2106
			2223	2107
			2222	2108
			2222	2109
			2221	2110
			2220	2111
			2220	2112
			2219	2112
			2218	2113
			2218	2114
			2217	2115
			2216	2115
			2215	2116
			2215	2117
			2214	2118
			2213	2118
			2212	2119
			2211	2120
			2211	2121
			2210	2121
			2209	2122
			2208	2123
			2207	2124
			2206	2125
			2205	2125
			2204	2126
			2203	2126
			2202	2127
			2201	2128
			2200	2128
			2199	2129
			2198	2130
			2197	2130
			2196	2131
			2195	2131
			2194	2132
			2193	2132
			2193	2133
			2192	2133
			2191	2133
			2190	2134
			2189	2134
			2188	2134
			2188	2135
			2187	2135
			2186	2135
			2185	2135
			2184	2136
			2183	2136
			2182	2136
			2181	2136
			2180	2137
			2179	2137
			2178	2137
			2177	2137
			2176	2136
			2175	2136
			2174	2136
			2173	2136
			2172	2136
			2171	2136
			2170	2136
			2169	2137
			2168	2137
			2167	2137
			2166	2137
			2166	2138
			2165	2138
			2164	2138
			2163	2139
			2162	2139
			2161	2139
			2160	2140
			2159	2140
			2158	2141
			2157	2141
			2156	2142
			2155	2142
			2154	2142
			2154	2143
			2153	2143
			2152	2143
			2152	2144
			2151	2144
			2150	2144
			2149	2145
			2148	2145
			2147	2146
			2146	2146
			2145	2147
			2144	2147
			2143	2148
			2142	2148
			2142	2149
			2141	2149
			2140	2149
			2140	2150
			2139	2150
			2138	2151
			2137	2151
			2137	2152
			2136	2152
		</Outline4>
	</curves.pixel>
	<curves.scaled type=list>
		<Outline1 type=matrix rownames=FALSE colnames=FALSE nrow=143 ncol=2 as.numeric=TRUE >
			30.8826306360275	-31.1139612025895
			30.8681724756174	-31.1139612025895
			30.8537143152073	-31.1284193629997
			30.8392561547972	-31.1428775234098
			30.824797994387	-31.1428775234098
			30.8103398339769	-31.1573356838199
			30.7958816735668	-31.1573356838199
			30.7814235131567	-31.1573356838199
			30.7669653527465	-31.17179384423
			30.7525071923364	-31.17179384423
			30.7380490319263	-31.17179384423
			30.7235908715162	-31.1862520046402
			30.709132711106	-31.1862520046402
			30.6946745506959	-31.1862520046402
			30.6802163902858	-31.1862520046402
			30.6657582298757	-31.1862520046402
			30.6657582298757	-31.2007101650503
			30.6513000694655	-31.2007101650503
			30.6368419090554	-31.2007101650503
			30.6223837486453	-31.2007101650503
			30.6079255882352	-31.2007101650503
			30.593467427825	-31.2007101650503
			30.5790092674149	-31.2007101650503
			30.5645511070048	-31.2007101650503
			30.5500929465947	-31.2007101650503
			30.5356347861845	-31.2007101650503
			30.5211766257744	-31.2007101650503
			30.5067184653643	-31.2007101650503
			30.4922603049542	-31.2007101650503
			30.477802144544	-31.2007101650503
			30.4633439841339	-31.2007101650503
			30.4488858237238	-31.2007101650503
			30.4344276633137	-31.2007101650503
			30.4199695029035	-31.2007101650503
			30.4055113424934	-31.2007101650503
			30.3910531820833	-31.1862520046402
			30.3765950216732	-31.1862520046402
			30.362136861263	-31.1862520046402
			30.3476787008529	-31.1862520046402
			30.3332205404428	-31.1862520046402
			30.3187623800327	-31.17179384423
			30.3043042196225	-31.17179384423
			30.2898460592124	-31.1573356838199
			30.2753878988023	-31.1573356838199
			30.2609297383922	-31.1573356838199
			30.246471577982	-31.1428775234098
			30.2320134175719	-31.1428775234098
			30.2175552571618	-31.1284193629997
			30.2030970967516	-31.1284193629997
			30.1886389363415	-31.1139612025895
			30.1741807759314	-31.1139612025895
			30.1597226155213	-31.0995030421794
			30.1452644551111	-31.0850448817693
			30.130806294701	-31.0850448817693
			30.1163481342909	-31.0705867213592
			30.1018899738808	-31.056128560949
			30.0874318134706	-31.056128560949
			30.0874318134706	-31.0416704005389
			30.0729736530605	-31.0272122401288
			30.0585154926504	-31.0127540797187
			30.0440573322403	-31.0127540797187
			30.0295991718301	-30.9982959193085
			30.01514101142	-30.9838377588984
			30.01514101142	-30.9693795984883
			30.0006828510099	-30.9549214380782
			29.9862246905998	-30.940463277668
			29.9717665301896	-30.9260051172579
			29.9573083697795	-30.9115469568478
			29.9428502093694	-30.8970887964377
			29.9428502093694	-30.8826306360275
			29.9283920489593	-30.8681724756174
			29.9283920489593	-30.8537143152073
			29.9139338885491	-30.8392561547972
			29.9139338885491	-30.824797994387
			29.899475728139	-30.824797994387
			29.899475728139	-30.8103398339769
			29.8850175677289	-30.7958816735668
			29.8850175677289	-30.7814235131567
			29.8705594073188	-30.7669653527465
			29.8561012469086	-30.7525071923364
			29.8561012469086	-30.7380490319263
			29.8416430864985	-30.7235908715162
			29.8416430864985	-30.709132711106
			29.8271849260884	-30.6946745506959
			29.8271849260884	-30.6802163902858
			29.8127267656783	-30.6657582298757
			29.8127267656783	-30.6513000694655
			29.7982686052681	-30.6368419090554
			29.7982686052681	-30.6223837486453
			29.783810444858	-30.6079255882352
			29.783810444858	-30.593467427825
			29.783810444858	-30.5790092674149
			29.7693522844479	-30.5645511070048
			29.7693522844479	-30.5500929465947
			29.7693522844479	-30.5356347861845
			29.7548941240378	-30.5211766257744
			29.7548941240378	-30.5067184653643
			29.7548941240378	-30.4922603049542
			29.7404359636276	-30.477802144544
			29.7404359636276	-30.4633439841339
			29.7404359636276	-30.4488858237238
			29.7404359636276	-30.4344276633137
			29.7259778032175	-30.4199695029035
			29.7259778032175	-30.4055113424934
			29.7259778032175	-30.3910531820833
			29.7259778032175	-30.3765950216732
			29.7259778032175	-30.362136861263
			29.7115196428074	-30.3476787008529
			29.7115196428074	-30.3332205404428
			29.7115196428074	-30.3187623800327
			29.7115196428074	-30.3043042196225
			29.7115196428074	-30.2898460592124
			29.6970614823973	-30.2898460592124
			29.6970614823973	-30.2753878988023
			29.6970614823973	-30.2609297383922
			29.6970614823973	-30.246471577982
			29.6970614823973	-30.2320134175719
			29.6970614823973	-30.2175552571618
			29.6826033219871	-30.2030970967516
			29.6826033219871	-30.1886389363415
			29.6826033219871	-30.1741807759314
			29.6826033219871	-30.1597226155213
			29.6826033219871	-30.1452644551111
			29.6826033219871	-30.130806294701
			29.668145161577	-30.1163481342909
			29.668145161577	-30.1018899738808
			29.668145161577	-30.0874318134706
			29.668145161577	-30.0729736530605
			29.668145161577	-30.0585154926504
			29.6536870011669	-30.0440573322403
			29.6536870011669	-30.0295991718301
			29.6536870011669	-30.01514101142
			29.6536870011669	-30.0006828510099
			29.6536870011669	-29.9862246905998
			29.6536870011669	-29.9717665301896
			29.6392288407568	-29.9573083697795
			29.6392288407568	-29.9428502093694
			29.6392288407568	-29.9283920489593
			29.6392288407568	-29.9139338885491
			29.6392288407568	-29.899475728139
			29.6392288407568	-29.8850175677289
			29.6392288407568	-29.8705594073188
			29.6392288407568	-29.8561012469086
		</Outline1>
		<Outline2 type=matrix rownames=FALSE colnames=FALSE nrow=127 ncol=2 as.numeric=TRUE >
			29.6392288407568	-29.8561012469086
			29.6392288407568	-29.8416430864985
			29.6536870011669	-29.8271849260884
			29.6536870011669	-29.8127267656783
			29.668145161577	-29.7982686052681
			29.668145161577	-29.783810444858
			29.668145161577	-29.7693522844479
			29.6826033219871	-29.7548941240378
			29.6826033219871	-29.7404359636276
			29.6826033219871	-29.7259778032175
			29.6970614823973	-29.7259778032175
			29.6970614823973	-29.7115196428074
			29.6970614823973	-29.6970614823973
			29.7115196428074	-29.6826033219871
			29.7115196428074	-29.668145161577
			29.7115196428074	-29.6536870011669
			29.7259778032175	-29.6392288407568
			29.7259778032175	-29.6247706803466
			29.7404359636276	-29.6103125199365
			29.7404359636276	-29.5958543595264
			29.7548941240378	-29.5813961991163
			29.7548941240378	-29.5669380387061
			29.7693522844479	-29.552479878296
			29.7693522844479	-29.5380217178859
			29.783810444858	-29.5235635574758
			29.783810444858	-29.5091053970656
			29.7982686052681	-29.4946472366555
			29.7982686052681	-29.4801890762454
			29.7982686052681	-29.4657309158353
			29.8127267656783	-29.4657309158353
			29.8127267656783	-29.4512727554251
			29.8271849260884	-29.436814595015
			29.8271849260884	-29.4223564346049
			29.8271849260884	-29.4078982741948
			29.8416430864985	-29.3934401137846
			29.8416430864985	-29.3789819533745
			29.8561012469086	-29.3789819533745
			29.8561012469086	-29.3645237929644
			29.8561012469086	-29.3500656325543
			29.8705594073188	-29.3356074721441
			29.8705594073188	-29.321149311734
			29.8705594073188	-29.3066911513239
			29.8850175677289	-29.3066911513239
			29.8850175677289	-29.2922329909138
			29.899475728139	-29.2777748305036
			29.899475728139	-29.2633166700935
			29.9139338885491	-29.2488585096834
			29.9139338885491	-29.2344003492733
			29.9283920489593	-29.2199421888631
			29.9428502093694	-29.205484028453
			29.9428502093694	-29.1910258680429
			29.9573083697795	-29.1910258680429
			29.9573083697795	-29.1765677076328
			29.9717665301896	-29.1621095472226
			29.9717665301896	-29.1476513868125
			29.9862246905998	-29.1331932264024
			30.0006828510099	-29.1187350659923
			30.01514101142	-29.1042769055821
			30.01514101142	-29.089818745172
			30.0295991718301	-29.0753605847619
			30.0440573322403	-29.0609024243518
			30.0585154926504	-29.0464442639416
			30.0729736530605	-29.0319861035315
			30.0729736530605	-29.0175279431214
			30.0874318134706	-29.0030697827113
			30.1018899738808	-28.9886116223011
			30.1163481342909	-28.974153461891
			30.130806294701	-28.9596953014809
			30.1452644551111	-28.9452371410708
			30.1597226155213	-28.9307789806606
			30.1741807759314	-28.9163208202505
			30.1886389363415	-28.9018626598404
			30.2030970967516	-28.8874044994303
			30.2175552571618	-28.8729463390201
			30.2320134175719	-28.85848817861
			30.246471577982	-28.85848817861
			30.2609297383922	-28.8440300181999
			30.2753878988023	-28.8295718577898
			30.2898460592124	-28.8151136973796
			30.3043042196225	-28.8151136973796
			30.3187623800327	-28.8006555369695
			30.3332205404428	-28.7861973765594
			30.3476787008529	-28.7861973765594
			30.362136861263	-28.7717392161492
			30.3765950216732	-28.7717392161492
			30.3910531820833	-28.7717392161492
			30.4055113424934	-28.7572810557391
			30.4199695029035	-28.7572810557391
			30.4344276633137	-28.7572810557391
			30.4488858237238	-28.742822895329
			30.4633439841339	-28.742822895329
			30.477802144544	-28.742822895329
			30.4922603049542	-28.742822895329
			30.5067184653643	-28.742822895329
			30.5211766257744	-28.742822895329
			30.5356347861845	-28.7283647349189
			30.5500929465947	-28.7283647349189
			30.5645511070048	-28.7283647349189
			30.5790092674149	-28.7283647349189
			30.593467427825	-28.7283647349189
			30.6079255882352	-28.7283647349189
			30.6223837486453	-28.7283647349189
			30.6368419090554	-28.7283647349189
			30.6513000694655	-28.7283647349189
			30.6657582298757	-28.7283647349189
			30.6802163902858	-28.7283647349189
			30.6946745506959	-28.7283647349189
			30.709132711106	-28.7283647349189
			30.7235908715162	-28.7283647349189
			30.7380490319263	-28.7283647349189
			30.7525071923364	-28.742822895329
			30.7669653527465	-28.742822895329
			30.7814235131567	-28.742822895329
			30.7958816735668	-28.742822895329
			30.8103398339769	-28.742822895329
			30.824797994387	-28.742822895329
			30.8392561547972	-28.7572810557391
			30.8537143152073	-28.7572810557391
			30.8681724756174	-28.7572810557391
			30.8826306360275	-28.7717392161492
			30.8970887964377	-28.7717392161492
			30.9115469568478	-28.7861973765594
			30.9260051172579	-28.7861973765594
			30.940463277668	-28.7861973765594
			30.9549214380782	-28.7861973765594
			30.9693795984883	-28.8006555369695
			30.9838377588984	-28.8006555369695
		</Outline2>
		<Outline3 type=matrix rownames=FALSE colnames=FALSE nrow=130 ncol=2 as.numeric=TRUE >
			30.9838377588984	-28.8006555369695
			30.9982959193085	-28.8006555369695
			31.0127540797187	-28.8151136973796
			31.0272122401288	-28.8151136973796
			31.0416704005389	-28.8151136973796
			31.0416704005389	-28.8295718577898
			31.056128560949	-28.8295718577898
			31.0705867213592	-28.8295718577898
			31.0850448817693	-28.8295718577898
			31.0850448817693	-28.8440300181999
			31.0995030421794	-28.8440300181999
			31.1139612025895	-28.8440300181999
			31.1284193629997	-28.8440300181999
			31.1428775234098	-28.85848817861
			31.1573356838199	-28.85848817861
			31.17179384423	-28.85848817861
			31.1862520046402	-28.8729463390201
			31.2007101650503	-28.8729463390201
			31.2151683254604	-28.8729463390201
			31.2296264858705	-28.8874044994303
			31.2440846462807	-28.8874044994303
			31.2585428066908	-28.8874044994303
			31.2730009671009	-28.9018626598404
			31.287459127511	-28.9018626598404
			31.3019172879212	-28.9018626598404
			31.3163754483313	-28.9018626598404
			31.3308336087414	-28.9163208202505
			31.3452917691515	-28.9163208202505
			31.3597499295617	-28.9163208202505
			31.3742080899718	-28.9307789806606
			31.3886662503819	-28.9307789806606
			31.403124410792	-28.9307789806606
			31.4175825712022	-28.9452371410708
			31.4320407316123	-28.9452371410708
			31.4464988920224	-28.9596953014809
			31.4609570524325	-28.9596953014809
			31.4754152128427	-28.974153461891
			31.4898733732528	-28.974153461891
			31.5043315336629	-28.974153461891
			31.518789694073	-28.9886116223011
			31.5332478544832	-28.9886116223011
			31.5477060148933	-29.0030697827113
			31.5621641753034	-29.0030697827113
			31.5766223357135	-29.0030697827113
			31.5766223357135	-29.0175279431214
			31.5910804961237	-29.0175279431214
			31.6055386565338	-29.0319861035315
			31.6199968169439	-29.0319861035315
			31.634454977354	-29.0464442639416
			31.6489131377642	-29.0464442639416
			31.6633712981743	-29.0609024243518
			31.6778294585844	-29.0609024243518
			31.6922876189945	-29.0609024243518
			31.7067457794047	-29.0753605847619
			31.7212039398148	-29.0753605847619
			31.7356621002249	-29.089818745172
			31.7501202606351	-29.089818745172
			31.7645784210452	-29.1042769055821
			31.7790365814553	-29.1042769055821
			31.7934947418654	-29.1187350659923
			31.8079529022756	-29.1331932264024
			31.8224110626857	-29.1331932264024
			31.8368692230958	-29.1476513868125
			31.8513273835059	-29.1621095472226
			31.8657855439161	-29.1621095472226
			31.8802437043262	-29.1765677076328
			31.8947018647363	-29.1910258680429
			31.9091600251464	-29.1910258680429
			31.9236181855566	-29.205484028453
			31.9380763459667	-29.2199421888631
			31.9525345063768	-29.2344003492733
			31.9669926667869	-29.2344003492733
			31.9814508271971	-29.2488585096834
			31.9959089876072	-29.2633166700935
			32.0103671480173	-29.2777748305036
			32.0248253084274	-29.2777748305036
			32.0248253084274	-29.2922329909138
			32.0392834688376	-29.3066911513239
			32.0537416292477	-29.321149311734
			32.0681997896578	-29.321149311734
			32.0826579500679	-29.3356074721441
			32.0826579500679	-29.3500656325543
			32.0971161104781	-29.3645237929644
			32.1115742708882	-29.3645237929644
			32.1115742708882	-29.3789819533745
			32.1260324312983	-29.3934401137846
			32.1404905917084	-29.4078982741948
			32.1549487521186	-29.4223564346049
			32.1694069125287	-29.436814595015
			32.1694069125287	-29.4512727554251
			32.1838650729388	-29.4657309158353
			32.1838650729388	-29.4801890762454
			32.1983232333489	-29.4946472366555
			32.1983232333489	-29.5091053970656
			32.2127813937591	-29.5235635574758
			32.2127813937591	-29.5380217178859
			32.2272395541692	-29.552479878296
			32.2272395541692	-29.5669380387061
			32.2272395541692	-29.5813961991163
			32.2416977145793	-29.5958543595264
			32.2416977145793	-29.6103125199365
			32.2416977145793	-29.6247706803466
			32.2561558749894	-29.6392288407568
			32.2561558749894	-29.6536870011669
			32.2561558749894	-29.668145161577
			32.2561558749894	-29.6826033219871
			32.2706140353996	-29.6970614823973
			32.2706140353996	-29.7115196428074
			32.2706140353996	-29.7259778032175
			32.2706140353996	-29.7404359636276
			32.2706140353996	-29.7548941240378
			32.2706140353996	-29.7693522844479
			32.2850721958097	-29.783810444858
			32.2850721958097	-29.7982686052681
			32.2850721958097	-29.8127267656783
			32.2850721958097	-29.8271849260884
			32.2850721958097	-29.8416430864985
			32.2850721958097	-29.8561012469086
			32.2850721958097	-29.8705594073188
			32.2850721958097	-29.8850175677289
			32.2850721958097	-29.899475728139
			32.2850721958097	-29.9139338885491
			32.2850721958097	-29.9283920489593
			32.2850721958097	-29.9428502093694
			32.2850721958097	-29.9573083697795
			32.2850721958097	-29.9717665301896
			32.2850721958097	-29.9862246905998
			32.2850721958097	-30.0006828510099
			32.2850721958097	-30.01514101142
			32.2850721958097	-30.0295991718301
		</Outline3>
		<Outline4 type=matrix rownames=FALSE colnames=FALSE nrow=131 ncol=2 as.numeric=TRUE >
			32.2850721958097	-30.0295991718301
			32.2850721958097	-30.0440573322403
			32.2850721958097	-30.0585154926504
			32.2850721958097	-30.0729736530605
			32.2706140353996	-30.0874318134706
			32.2706140353996	-30.1018899738808
			32.2706140353996	-30.1163481342909
			32.2706140353996	-30.130806294701
			32.2706140353996	-30.1452644551111
			32.2706140353996	-30.1597226155213
			32.2561558749894	-30.1741807759314
			32.2561558749894	-30.1886389363415
			32.2561558749894	-30.2030970967516
			32.2561558749894	-30.2175552571618
			32.2561558749894	-30.2320134175719
			32.2416977145793	-30.246471577982
			32.2416977145793	-30.2609297383922
			32.2416977145793	-30.2753878988023
			32.2416977145793	-30.2898460592124
			32.2272395541692	-30.3043042196225
			32.2127813937591	-30.3187623800327
			32.2127813937591	-30.3332205404428
			32.1983232333489	-30.3476787008529
			32.1983232333489	-30.362136861263
			32.1838650729388	-30.3765950216732
			32.1838650729388	-30.3910531820833
			32.1694069125287	-30.4055113424934
			32.1694069125287	-30.4199695029035
			32.1549487521186	-30.4344276633137
			32.1404905917084	-30.4488858237238
			32.1404905917084	-30.4633439841339
			32.1260324312983	-30.477802144544
			32.1260324312983	-30.4922603049542
			32.1115742708882	-30.5067184653643
			32.0971161104781	-30.5211766257744
			32.0971161104781	-30.5356347861845
			32.0826579500679	-30.5356347861845
			32.0681997896578	-30.5500929465947
			32.0681997896578	-30.5645511070048
			32.0537416292477	-30.5790092674149
			32.0392834688376	-30.5790092674149
			32.0248253084274	-30.593467427825
			32.0248253084274	-30.6079255882352
			32.0103671480173	-30.6223837486453
			31.9959089876072	-30.6223837486453
			31.9814508271971	-30.6368419090554
			31.9669926667869	-30.6513000694655
			31.9669926667869	-30.6657582298757
			31.9525345063768	-30.6657582298757
			31.9380763459667	-30.6802163902858
			31.9236181855566	-30.6946745506959
			31.9091600251464	-30.709132711106
			31.8947018647363	-30.7235908715162
			31.8802437043262	-30.7235908715162
			31.8657855439161	-30.7380490319263
			31.8513273835059	-30.7380490319263
			31.8368692230958	-30.7525071923364
			31.8224110626857	-30.7669653527465
			31.8079529022756	-30.7669653527465
			31.7934947418654	-30.7814235131567
			31.7790365814553	-30.7958816735668
			31.7645784210452	-30.7958816735668
			31.7501202606351	-30.8103398339769
			31.7356621002249	-30.8103398339769
			31.7212039398148	-30.824797994387
			31.7067457794047	-30.824797994387
			31.7067457794047	-30.8392561547972
			31.6922876189945	-30.8392561547972
			31.6778294585844	-30.8392561547972
			31.6633712981743	-30.8537143152073
			31.6489131377642	-30.8537143152073
			31.634454977354	-30.8537143152073
			31.634454977354	-30.8681724756174
			31.6199968169439	-30.8681724756174
			31.6055386565338	-30.8681724756174
			31.5910804961237	-30.8681724756174
			31.5766223357135	-30.8826306360275
			31.5621641753034	-30.8826306360275
			31.5477060148933	-30.8826306360275
			31.5332478544832	-30.8826306360275
			31.518789694073	-30.8970887964377
			31.5043315336629	-30.8970887964377
			31.4898733732528	-30.8970887964377
			31.4754152128427	-30.8970887964377
			31.4609570524325	-30.8826306360275
			31.4464988920224	-30.8826306360275
			31.4320407316123	-30.8826306360275
			31.4175825712022	-30.8826306360275
			31.403124410792	-30.8826306360275
			31.3886662503819	-30.8826306360275
			31.3742080899718	-30.8826306360275
			31.3597499295617	-30.8970887964377
			31.3452917691515	-30.8970887964377
			31.3308336087414	-30.8970887964377
			31.3163754483313	-30.8970887964377
			31.3163754483313	-30.9115469568478
			31.3019172879212	-30.9115469568478
			31.287459127511	-30.9115469568478
			31.2730009671009	-30.9260051172579
			31.2585428066908	-30.9260051172579
			31.2440846462807	-30.9260051172579
			31.2296264858705	-30.940463277668
			31.2151683254604	-30.940463277668
			31.2007101650503	-30.9549214380782
			31.1862520046402	-30.9549214380782
			31.17179384423	-30.9693795984883
			31.1573356838199	-30.9693795984883
			31.1428775234098	-30.9693795984883
			31.1428775234098	-30.9838377588984
			31.1284193629997	-30.9838377588984
			31.1139612025895	-30.9838377588984
			31.1139612025895	-30.9982959193085
			31.0995030421794	-30.9982959193085
			31.0850448817693	-30.9982959193085
			31.0705867213592	-31.0127540797187
			31.056128560949	-31.0127540797187
			31.0416704005389	-31.0272122401288
			31.0272122401288	-31.0272122401288
			31.0127540797187	-31.0416704005389
			30.9982959193085	-31.0416704005389
			30.9838377588984	-31.056128560949
			30.9693795984883	-31.056128560949
			30.9693795984883	-31.0705867213592
			30.9549214380782	-31.0705867213592
			30.940463277668	-31.0705867213592
			30.940463277668	-31.0850448817693
			30.9260051172579	-31.0850448817693
			30.9115469568478	-31.0995030421794
			30.8970887964377	-31.0995030421794
			30.8970887964377	-31.1139612025895
			30.8826306360275	-31.1139612025895
		</Outline4>
	</curves.scaled>
	<ruler.points type=matrix rownames=TRUE colnames=FALSE nrow=2 ncol=2 as.numeric=TRUE >
		Ruler point 1	2896	474
		Ruler point 2	2205	444
	</ruler.points>
</shapes>

