<shapes type=list>
	<ruler.pixel type=vector names=FALSE length=1 as.numeric=TRUE >689</ruler.pixel>
	<ruler.interval type=vector names=FALSE length=1 as.numeric=TRUE >10</ruler.interval>
	<scaling.units type=vector names=FALSE length=1 as.numeric=FALSE >mm</scaling.units>
	<scaling type=vector names=FALSE length=1 as.numeric=TRUE >0.0145137880986938</scaling>
	<landmarks.pixel type=matrix rownames=TRUE colnames=FALSE nrow=4 ncol=2 as.numeric=TRUE >
		Labial	2389	1711
		Posterior	2290	1650
		Lingual	2360	1556
		Anterior	2466	1618
	</landmarks.pixel>
	<landmarks.scaled type=matrix rownames=TRUE colnames=FALSE nrow=4 ncol=2 as.numeric=TRUE >
		Labial	34.6734397677794	-24.833091436865
		Posterior	33.2365747460087	-23.9477503628447
		Lingual	34.2525399129173	-22.5834542815675
		Anterior	35.7910014513788	-23.4833091436865
	</landmarks.scaled>
	<curves.control type=list>
		<Outline1 type=matrix rownames=FALSE colnames=FALSE nrow=19 ncol=2 as.numeric=TRUE >
			2389	1711
			2384	1716
			2376	1721
			2368	1727
			2360	1731
			2353	1735
			2344	1737
			2335	1736
			2327	1733
			2320	1729
			2314	1725
			2308	1721
			2302	1716
			2297	1710
			2294	1701
			2293	1690
			2293	1679
			2294	1668
			2290	1650
		</Outline1>
		<Outline2 type=matrix rownames=FALSE colnames=FALSE nrow=17 ncol=2 as.numeric=TRUE >
			2290	1650
			2288	1638
			2289	1627
			2290	1616
			2293	1608
			2296	1597
			2300	1587
			2303	1579
			2307	1571
			2314	1565
			2323	1561
			2330	1559
			2337	1558
			2343	1557
			2348	1556
			2353	1556
			2360	1556
		</Outline2>
		<Outline3 type=matrix rownames=FALSE colnames=FALSE nrow=17 ncol=2 as.numeric=TRUE >
			2360	1556
			2373	1555
			2384	1556
			2395	1557
			2405	1558
			2414	1560
			2423	1562
			2430	1564
			2437	1567
			2444	1571
			2449	1576
			2455	1583
			2458	1590
			2462	1598
			2464	1605
			2465	1611
			2466	1618
		</Outline3>
		<Outline4 type=matrix rownames=FALSE colnames=FALSE nrow=19 ncol=2 as.numeric=TRUE >
			2466	1618
			2467	1629
			2467	1637
			2466	1647
			2464	1655
			2463	1661
			2462	1666
			2457	1673
			2450	1678
			2443	1683
			2437	1688
			2430	1691
			2422	1694
			2415	1696
			2409	1699
			2403	1700
			2398	1704
			2394	1707
			2389	1711
		</Outline4>
	</curves.control>
	<curves.pixel type=list>
		<Outline1 type=matrix rownames=FALSE colnames=FALSE nrow=155 ncol=2 as.numeric=TRUE >
			2389	1711
			2388	1712
			2387	1713
			2386	1714
			2385	1715
			2384	1716
			2383	1716
			2382	1717
			2381	1718
			2380	1718
			2379	1719
			2378	1720
			2377	1720
			2376	1721
			2375	1722
			2374	1722
			2373	1723
			2372	1724
			2371	1725
			2370	1725
			2369	1726
			2368	1727
			2367	1727
			2366	1728
			2365	1728
			2364	1729
			2363	1730
			2362	1730
			2361	1731
			2360	1731
			2359	1732
			2358	1732
			2357	1733
			2356	1733
			2355	1733
			2354	1734
			2353	1734
			2352	1735
			2351	1735
			2350	1735
			2349	1736
			2348	1736
			2347	1736
			2346	1737
			2345	1737
			2344	1737
			2343	1737
			2342	1737
			2341	1737
			2340	1736
			2339	1736
			2338	1736
			2337	1736
			2336	1736
			2335	1735
			2334	1735
			2333	1735
			2332	1735
			2331	1734
			2330	1734
			2329	1734
			2328	1734
			2328	1733
			2327	1733
			2326	1732
			2325	1732
			2324	1731
			2323	1731
			2322	1730
			2321	1730
			2320	1729
			2319	1728
			2318	1727
			2317	1727
			2316	1726
			2315	1726
			2314	1725
			2313	1724
			2312	1724
			2311	1723
			2310	1722
			2309	1722
			2308	1721
			2307	1720
			2306	1719
			2305	1719
			2304	1718
			2303	1717
			2302	1716
			2301	1715
			2301	1714
			2300	1713
			2299	1712
			2299	1711
			2298	1710
			2297	1709
			2297	1708
			2296	1707
			2296	1706
			2296	1705
			2295	1704
			2295	1703
			2294	1702
			2294	1701
			2294	1700
			2294	1699
			2294	1698
			2294	1697
			2294	1696
			2294	1695
			2293	1694
			2293	1693
			2293	1692
			2293	1691
			2293	1690
			2293	1689
			2293	1688
			2293	1687
			2293	1686
			2293	1685
			2293	1684
			2293	1683
			2293	1682
			2293	1681
			2293	1680
			2293	1679
			2293	1678
			2293	1677
			2293	1676
			2293	1675
			2293	1674
			2293	1673
			2293	1672
			2293	1671
			2293	1670
			2293	1669
			2293	1668
			2293	1667
			2293	1666
			2293	1665
			2293	1664
			2292	1663
			2292	1662
			2292	1661
			2292	1660
			2292	1659
			2292	1658
			2291	1657
			2291	1656
			2291	1655
			2291	1654
			2291	1653
			2290	1652
			2290	1651
			2290	1650
		</Outline1>
		<Outline2 type=matrix rownames=FALSE colnames=FALSE nrow=140 ncol=2 as.numeric=TRUE >
			2290	1650
			2290	1649
			2290	1648
			2290	1647
			2289	1646
			2289	1645
			2289	1644
			2289	1643
			2289	1642
			2289	1641
			2289	1640
			2289	1639
			2289	1638
			2289	1637
			2289	1636
			2289	1635
			2289	1634
			2289	1633
			2289	1632
			2289	1631
			2289	1630
			2289	1629
			2289	1628
			2289	1627
			2289	1626
			2289	1625
			2289	1624
			2289	1623
			2290	1622
			2290	1621
			2290	1620
			2290	1619
			2290	1618
			2290	1617
			2291	1616
			2291	1615
			2291	1614
			2291	1613
			2292	1612
			2292	1611
			2292	1610
			2293	1609
			2293	1608
			2293	1607
			2294	1606
			2294	1605
			2294	1604
			2294	1603
			2295	1602
			2295	1601
			2295	1600
			2296	1599
			2296	1598
			2296	1597
			2297	1596
			2297	1595
			2297	1594
			2298	1593
			2298	1592
			2298	1591
			2299	1591
			2299	1590
			2299	1589
			2300	1588
			2300	1587
			2300	1586
			2301	1586
			2301	1585
			2301	1584
			2301	1583
			2302	1583
			2302	1582
			2302	1581
			2303	1580
			2303	1579
			2304	1578
			2304	1577
			2305	1576
			2305	1575
			2305	1574
			2306	1573
			2306	1572
			2307	1572
			2307	1571
			2308	1570
			2309	1570
			2310	1569
			2310	1568
			2311	1568
			2312	1567
			2313	1567
			2314	1566
			2315	1565
			2316	1564
			2317	1564
			2318	1563
			2319	1563
			2320	1562
			2321	1562
			2322	1561
			2323	1561
			2324	1561
			2325	1560
			2326	1560
			2327	1560
			2328	1560
			2329	1560
			2329	1559
			2330	1559
			2331	1559
			2332	1559
			2333	1559
			2334	1558
			2335	1558
			2336	1558
			2337	1558
			2338	1558
			2339	1558
			2340	1557
			2341	1557
			2342	1557
			2343	1557
			2344	1557
			2345	1557
			2345	1556
			2346	1556
			2347	1556
			2348	1556
			2349	1556
			2350	1556
			2351	1556
			2352	1556
			2353	1556
			2354	1556
			2355	1556
			2356	1556
			2357	1556
			2358	1556
			2359	1556
			2360	1556
		</Outline2>
		<Outline3 type=matrix rownames=FALSE colnames=FALSE nrow=136 ncol=2 as.numeric=TRUE >
			2360	1556
			2361	1556
			2362	1556
			2363	1556
			2364	1556
			2365	1556
			2366	1556
			2367	1556
			2368	1556
			2369	1556
			2370	1556
			2371	1556
			2372	1556
			2373	1556
			2374	1556
			2375	1556
			2376	1556
			2377	1556
			2378	1556
			2379	1556
			2380	1556
			2381	1556
			2382	1556
			2383	1556
			2384	1556
			2385	1556
			2386	1556
			2387	1556
			2388	1556
			2389	1557
			2390	1557
			2391	1557
			2392	1557
			2393	1557
			2394	1557
			2395	1557
			2396	1557
			2397	1557
			2398	1557
			2399	1557
			2400	1558
			2401	1558
			2402	1558
			2403	1558
			2404	1558
			2405	1558
			2406	1558
			2407	1558
			2408	1559
			2409	1559
			2410	1559
			2411	1559
			2412	1559
			2413	1560
			2414	1560
			2415	1560
			2416	1560
			2417	1561
			2418	1561
			2419	1561
			2420	1561
			2421	1562
			2422	1562
			2423	1562
			2424	1562
			2425	1563
			2426	1563
			2427	1563
			2428	1564
			2429	1564
			2430	1564
			2431	1565
			2432	1565
			2433	1565
			2434	1566
			2435	1566
			2436	1567
			2437	1567
			2438	1568
			2439	1568
			2440	1569
			2441	1570
			2442	1570
			2443	1571
			2444	1572
			2445	1572
			2445	1573
			2446	1573
			2447	1574
			2448	1575
			2449	1576
			2450	1577
			2451	1578
			2452	1579
			2452	1580
			2453	1581
			2454	1582
			2454	1583
			2455	1584
			2455	1585
			2456	1586
			2456	1587
			2457	1588
			2457	1589
			2458	1589
			2458	1590
			2459	1591
			2459	1592
			2459	1593
			2460	1594
			2461	1595
			2461	1596
			2461	1597
			2461	1598
			2462	1598
			2462	1599
			2462	1600
			2463	1600
			2463	1601
			2463	1602
			2463	1603
			2464	1604
			2464	1605
			2464	1606
			2464	1607
			2465	1608
			2465	1609
			2465	1610
			2465	1611
			2465	1612
			2465	1613
			2465	1614
			2466	1615
			2466	1616
			2466	1617
			2466	1618
		</Outline3>
		<Outline4 type=matrix rownames=FALSE colnames=FALSE nrow=130 ncol=2 as.numeric=TRUE >
			2466	1618
			2466	1619
			2466	1620
			2466	1621
			2466	1622
			2466	1623
			2466	1624
			2467	1624
			2467	1625
			2467	1626
			2467	1627
			2467	1628
			2467	1629
			2467	1630
			2467	1631
			2467	1632
			2467	1633
			2467	1634
			2467	1635
			2467	1636
			2467	1637
			2467	1638
			2467	1639
			2467	1640
			2467	1641
			2466	1642
			2466	1643
			2466	1644
			2466	1645
			2466	1646
			2466	1647
			2465	1648
			2465	1649
			2465	1650
			2465	1651
			2465	1652
			2465	1653
			2464	1654
			2464	1655
			2464	1656
			2464	1657
			2464	1658
			2463	1658
			2463	1659
			2463	1660
			2463	1661
			2463	1662
			2463	1663
			2462	1664
			2462	1665
			2462	1666
			2461	1667
			2460	1668
			2460	1669
			2459	1670
			2458	1670
			2458	1671
			2457	1672
			2456	1673
			2455	1674
			2454	1675
			2453	1676
			2452	1676
			2452	1677
			2451	1677
			2450	1678
			2449	1679
			2448	1679
			2447	1680
			2446	1681
			2445	1682
			2444	1683
			2443	1683
			2442	1684
			2441	1685
			2440	1685
			2439	1686
			2438	1687
			2437	1688
			2436	1688
			2435	1689
			2434	1689
			2433	1690
			2432	1690
			2431	1690
			2430	1691
			2429	1691
			2428	1692
			2427	1692
			2426	1693
			2425	1693
			2424	1693
			2423	1694
			2422	1694
			2421	1694
			2420	1695
			2419	1695
			2418	1695
			2417	1696
			2416	1696
			2415	1696
			2414	1697
			2413	1697
			2412	1698
			2411	1698
			2410	1699
			2409	1699
			2408	1699
			2407	1699
			2406	1700
			2405	1700
			2404	1700
			2404	1701
			2403	1701
			2402	1701
			2401	1702
			2400	1702
			2400	1703
			2399	1703
			2398	1704
			2397	1704
			2397	1705
			2396	1705
			2395	1706
			2394	1707
			2393	1708
			2392	1709
			2391	1709
			2390	1710
			2389	1711
		</Outline4>
	</curves.pixel>
	<curves.scaled type=list>
		<Outline1 type=matrix rownames=FALSE colnames=FALSE nrow=155 ncol=2 as.numeric=TRUE >
			34.6734397677794	-24.833091436865
			34.6589259796807	-24.8476052249637
			34.644412191582	-24.8621190130624
			34.6298984034833	-24.8766328011611
			34.6153846153846	-24.8911465892598
			34.6008708272859	-24.9056603773585
			34.5863570391872	-24.9056603773585
			34.5718432510885	-24.9201741654572
			34.5573294629898	-24.9346879535559
			34.5428156748911	-24.9346879535559
			34.5283018867925	-24.9492017416546
			34.5137880986938	-24.9637155297533
			34.4992743105951	-24.9637155297533
			34.4847605224964	-24.978229317852
			34.4702467343977	-24.9927431059507
			34.455732946299	-24.9927431059507
			34.4412191582003	-25.0072568940493
			34.4267053701016	-25.021770682148
			34.4121915820029	-25.0362844702467
			34.3976777939042	-25.0362844702467
			34.3831640058055	-25.0507982583454
			34.3686502177068	-25.0653120464441
			34.3541364296081	-25.0653120464441
			34.3396226415094	-25.0798258345428
			34.3251088534107	-25.0798258345428
			34.3105950653121	-25.0943396226415
			34.2960812772134	-25.1088534107402
			34.2815674891147	-25.1088534107402
			34.267053701016	-25.1233671988389
			34.2525399129173	-25.1233671988389
			34.2380261248186	-25.1378809869376
			34.2235123367199	-25.1378809869376
			34.2089985486212	-25.1523947750363
			34.1944847605225	-25.1523947750363
			34.1799709724238	-25.1523947750363
			34.1654571843251	-25.166908563135
			34.1509433962264	-25.166908563135
			34.1364296081277	-25.1814223512337
			34.121915820029	-25.1814223512337
			34.1074020319303	-25.1814223512337
			34.0928882438316	-25.1959361393324
			34.0783744557329	-25.1959361393324
			34.0638606676343	-25.1959361393324
			34.0493468795356	-25.2104499274311
			34.0348330914369	-25.2104499274311
			34.0203193033382	-25.2104499274311
			34.0058055152395	-25.2104499274311
			33.9912917271408	-25.2104499274311
			33.9767779390421	-25.2104499274311
			33.9622641509434	-25.1959361393324
			33.9477503628447	-25.1959361393324
			33.933236574746	-25.1959361393324
			33.9187227866473	-25.1959361393324
			33.9042089985486	-25.1959361393324
			33.8896952104499	-25.1814223512337
			33.8751814223512	-25.1814223512337
			33.8606676342525	-25.1814223512337
			33.8461538461538	-25.1814223512337
			33.8316400580552	-25.166908563135
			33.8171262699565	-25.166908563135
			33.8026124818578	-25.166908563135
			33.7880986937591	-25.166908563135
			33.7880986937591	-25.1523947750363
			33.7735849056604	-25.1523947750363
			33.7590711175617	-25.1378809869376
			33.744557329463	-25.1378809869376
			33.7300435413643	-25.1233671988389
			33.7155297532656	-25.1233671988389
			33.7010159651669	-25.1088534107402
			33.6865021770682	-25.1088534107402
			33.6719883889695	-25.0943396226415
			33.6574746008708	-25.0798258345428
			33.6429608127721	-25.0653120464441
			33.6284470246734	-25.0653120464441
			33.6139332365747	-25.0507982583454
			33.5994194484761	-25.0507982583454
			33.5849056603774	-25.0362844702467
			33.5703918722787	-25.021770682148
			33.55587808418	-25.021770682148
			33.5413642960813	-25.0072568940493
			33.5268505079826	-24.9927431059507
			33.5123367198839	-24.9927431059507
			33.4978229317852	-24.978229317852
			33.4833091436865	-24.9637155297533
			33.4687953555878	-24.9492017416546
			33.4542815674891	-24.9492017416546
			33.4397677793904	-24.9346879535559
			33.4252539912917	-24.9201741654572
			33.410740203193	-24.9056603773585
			33.3962264150943	-24.8911465892598
			33.3962264150943	-24.8766328011611
			33.3817126269956	-24.8621190130624
			33.367198838897	-24.8476052249637
			33.367198838897	-24.833091436865
			33.3526850507983	-24.8185776487663
			33.3381712626996	-24.8040638606676
			33.3381712626996	-24.7895500725689
			33.3236574746009	-24.7750362844702
			33.3236574746009	-24.7605224963716
			33.3236574746009	-24.7460087082729
			33.3091436865022	-24.7314949201742
			33.3091436865022	-24.7169811320755
			33.2946298984035	-24.7024673439768
			33.2946298984035	-24.6879535558781
			33.2946298984035	-24.6734397677794
			33.2946298984035	-24.6589259796807
			33.2946298984035	-24.644412191582
			33.2946298984035	-24.6298984034833
			33.2946298984035	-24.6153846153846
			33.2946298984035	-24.6008708272859
			33.2801161103048	-24.5863570391872
			33.2801161103048	-24.5718432510885
			33.2801161103048	-24.5573294629898
			33.2801161103048	-24.5428156748911
			33.2801161103048	-24.5283018867925
			33.2801161103048	-24.5137880986938
			33.2801161103048	-24.4992743105951
			33.2801161103048	-24.4847605224964
			33.2801161103048	-24.4702467343977
			33.2801161103048	-24.455732946299
			33.2801161103048	-24.4412191582003
			33.2801161103048	-24.4267053701016
			33.2801161103048	-24.4121915820029
			33.2801161103048	-24.3976777939042
			33.2801161103048	-24.3831640058055
			33.2801161103048	-24.3686502177068
			33.2801161103048	-24.3541364296081
			33.2801161103048	-24.3396226415094
			33.2801161103048	-24.3251088534107
			33.2801161103048	-24.310595065312
			33.2801161103048	-24.2960812772134
			33.2801161103048	-24.2815674891147
			33.2801161103048	-24.267053701016
			33.2801161103048	-24.2525399129173
			33.2801161103048	-24.2380261248186
			33.2801161103048	-24.2235123367199
			33.2801161103048	-24.2089985486212
			33.2801161103048	-24.1944847605225
			33.2801161103048	-24.1799709724238
			33.2801161103048	-24.1654571843251
			33.2801161103048	-24.1509433962264
			33.2656023222061	-24.1364296081277
			33.2656023222061	-24.121915820029
			33.2656023222061	-24.1074020319303
			33.2656023222061	-24.0928882438316
			33.2656023222061	-24.0783744557329
			33.2656023222061	-24.0638606676343
			33.2510885341074	-24.0493468795356
			33.2510885341074	-24.0348330914369
			33.2510885341074	-24.0203193033382
			33.2510885341074	-24.0058055152395
			33.2510885341074	-23.9912917271408
			33.2365747460087	-23.9767779390421
			33.2365747460087	-23.9622641509434
			33.2365747460087	-23.9477503628447
		</Outline1>
		<Outline2 type=matrix rownames=FALSE colnames=FALSE nrow=140 ncol=2 as.numeric=TRUE >
			33.2365747460087	-23.9477503628447
			33.2365747460087	-23.933236574746
			33.2365747460087	-23.9187227866473
			33.2365747460087	-23.9042089985486
			33.22206095791	-23.8896952104499
			33.22206095791	-23.8751814223512
			33.22206095791	-23.8606676342525
			33.22206095791	-23.8461538461538
			33.22206095791	-23.8316400580552
			33.22206095791	-23.8171262699565
			33.22206095791	-23.8026124818578
			33.22206095791	-23.7880986937591
			33.22206095791	-23.7735849056604
			33.22206095791	-23.7590711175617
			33.22206095791	-23.744557329463
			33.22206095791	-23.7300435413643
			33.22206095791	-23.7155297532656
			33.22206095791	-23.7010159651669
			33.22206095791	-23.6865021770682
			33.22206095791	-23.6719883889695
			33.22206095791	-23.6574746008708
			33.22206095791	-23.6429608127721
			33.22206095791	-23.6284470246734
			33.22206095791	-23.6139332365747
			33.22206095791	-23.5994194484761
			33.22206095791	-23.5849056603774
			33.22206095791	-23.5703918722787
			33.22206095791	-23.55587808418
			33.2365747460087	-23.5413642960813
			33.2365747460087	-23.5268505079826
			33.2365747460087	-23.5123367198839
			33.2365747460087	-23.4978229317852
			33.2365747460087	-23.4833091436865
			33.2365747460087	-23.4687953555878
			33.2510885341074	-23.4542815674891
			33.2510885341074	-23.4397677793904
			33.2510885341074	-23.4252539912917
			33.2510885341074	-23.410740203193
			33.2656023222061	-23.3962264150943
			33.2656023222061	-23.3817126269956
			33.2656023222061	-23.367198838897
			33.2801161103048	-23.3526850507983
			33.2801161103048	-23.3381712626996
			33.2801161103048	-23.3236574746009
			33.2946298984035	-23.3091436865022
			33.2946298984035	-23.2946298984035
			33.2946298984035	-23.2801161103048
			33.2946298984035	-23.2656023222061
			33.3091436865022	-23.2510885341074
			33.3091436865022	-23.2365747460087
			33.3091436865022	-23.22206095791
			33.3236574746009	-23.2075471698113
			33.3236574746009	-23.1930333817126
			33.3236574746009	-23.1785195936139
			33.3381712626996	-23.1640058055152
			33.3381712626996	-23.1494920174165
			33.3381712626996	-23.1349782293179
			33.3526850507983	-23.1204644412192
			33.3526850507983	-23.1059506531205
			33.3526850507983	-23.0914368650218
			33.367198838897	-23.0914368650218
			33.367198838897	-23.0769230769231
			33.367198838897	-23.0624092888244
			33.3817126269956	-23.0478955007257
			33.3817126269956	-23.033381712627
			33.3817126269956	-23.0188679245283
			33.3962264150943	-23.0188679245283
			33.3962264150943	-23.0043541364296
			33.3962264150943	-22.9898403483309
			33.3962264150943	-22.9753265602322
			33.410740203193	-22.9753265602322
			33.410740203193	-22.9608127721335
			33.410740203193	-22.9462989840348
			33.4252539912917	-22.9317851959361
			33.4252539912917	-22.9172714078374
			33.4397677793904	-22.9027576197388
			33.4397677793904	-22.8882438316401
			33.4542815674891	-22.8737300435414
			33.4542815674891	-22.8592162554427
			33.4542815674891	-22.844702467344
			33.4687953555878	-22.8301886792453
			33.4687953555878	-22.8156748911466
			33.4833091436865	-22.8156748911466
			33.4833091436865	-22.8011611030479
			33.4978229317852	-22.7866473149492
			33.5123367198839	-22.7866473149492
			33.5268505079826	-22.7721335268505
			33.5268505079826	-22.7576197387518
			33.5413642960813	-22.7576197387518
			33.55587808418	-22.7431059506531
			33.5703918722787	-22.7431059506531
			33.5849056603774	-22.7285921625544
			33.5994194484761	-22.7140783744557
			33.6139332365747	-22.699564586357
			33.6284470246734	-22.699564586357
			33.6429608127721	-22.6850507982583
			33.6574746008708	-22.6850507982583
			33.6719883889695	-22.6705370101597
			33.6865021770682	-22.6705370101597
			33.7010159651669	-22.656023222061
			33.7155297532656	-22.656023222061
			33.7300435413643	-22.656023222061
			33.744557329463	-22.6415094339623
			33.7590711175617	-22.6415094339623
			33.7735849056604	-22.6415094339623
			33.7880986937591	-22.6415094339623
			33.8026124818578	-22.6415094339623
			33.8026124818578	-22.6269956458636
			33.8171262699565	-22.6269956458636
			33.8316400580552	-22.6269956458636
			33.8461538461538	-22.6269956458636
			33.8606676342525	-22.6269956458636
			33.8751814223512	-22.6124818577649
			33.8896952104499	-22.6124818577649
			33.9042089985486	-22.6124818577649
			33.9187227866473	-22.6124818577649
			33.933236574746	-22.6124818577649
			33.9477503628447	-22.6124818577649
			33.9622641509434	-22.5979680696662
			33.9767779390421	-22.5979680696662
			33.9912917271408	-22.5979680696662
			34.0058055152395	-22.5979680696662
			34.0203193033382	-22.5979680696662
			34.0348330914369	-22.5979680696662
			34.0348330914369	-22.5834542815675
			34.0493468795356	-22.5834542815675
			34.0638606676343	-22.5834542815675
			34.0783744557329	-22.5834542815675
			34.0928882438316	-22.5834542815675
			34.1074020319303	-22.5834542815675
			34.121915820029	-22.5834542815675
			34.1364296081277	-22.5834542815675
			34.1509433962264	-22.5834542815675
			34.1654571843251	-22.5834542815675
			34.1799709724238	-22.5834542815675
			34.1944847605225	-22.5834542815675
			34.2089985486212	-22.5834542815675
			34.2235123367199	-22.5834542815675
			34.2380261248186	-22.5834542815675
			34.2525399129173	-22.5834542815675
		</Outline2>
		<Outline3 type=matrix rownames=FALSE colnames=FALSE nrow=136 ncol=2 as.numeric=TRUE >
			34.2525399129173	-22.5834542815675
			34.267053701016	-22.5834542815675
			34.2815674891147	-22.5834542815675
			34.2960812772134	-22.5834542815675
			34.3105950653121	-22.5834542815675
			34.3251088534107	-22.5834542815675
			34.3396226415094	-22.5834542815675
			34.3541364296081	-22.5834542815675
			34.3686502177068	-22.5834542815675
			34.3831640058055	-22.5834542815675
			34.3976777939042	-22.5834542815675
			34.4121915820029	-22.5834542815675
			34.4267053701016	-22.5834542815675
			34.4412191582003	-22.5834542815675
			34.455732946299	-22.5834542815675
			34.4702467343977	-22.5834542815675
			34.4847605224964	-22.5834542815675
			34.4992743105951	-22.5834542815675
			34.5137880986938	-22.5834542815675
			34.5283018867925	-22.5834542815675
			34.5428156748911	-22.5834542815675
			34.5573294629898	-22.5834542815675
			34.5718432510885	-22.5834542815675
			34.5863570391872	-22.5834542815675
			34.6008708272859	-22.5834542815675
			34.6153846153846	-22.5834542815675
			34.6298984034833	-22.5834542815675
			34.644412191582	-22.5834542815675
			34.6589259796807	-22.5834542815675
			34.6734397677794	-22.5979680696662
			34.6879535558781	-22.5979680696662
			34.7024673439768	-22.5979680696662
			34.7169811320755	-22.5979680696662
			34.7314949201742	-22.5979680696662
			34.7460087082729	-22.5979680696662
			34.7605224963716	-22.5979680696662
			34.7750362844702	-22.5979680696662
			34.7895500725689	-22.5979680696662
			34.8040638606676	-22.5979680696662
			34.8185776487663	-22.5979680696662
			34.833091436865	-22.6124818577649
			34.8476052249637	-22.6124818577649
			34.8621190130624	-22.6124818577649
			34.8766328011611	-22.6124818577649
			34.8911465892598	-22.6124818577649
			34.9056603773585	-22.6124818577649
			34.9201741654572	-22.6124818577649
			34.9346879535559	-22.6124818577649
			34.9492017416546	-22.6269956458636
			34.9637155297533	-22.6269956458636
			34.978229317852	-22.6269956458636
			34.9927431059507	-22.6269956458636
			35.0072568940493	-22.6269956458636
			35.021770682148	-22.6415094339623
			35.0362844702467	-22.6415094339623
			35.0507982583454	-22.6415094339623
			35.0653120464441	-22.6415094339623
			35.0798258345428	-22.656023222061
			35.0943396226415	-22.656023222061
			35.1088534107402	-22.656023222061
			35.1233671988389	-22.656023222061
			35.1378809869376	-22.6705370101597
			35.1523947750363	-22.6705370101597
			35.166908563135	-22.6705370101597
			35.1814223512337	-22.6705370101597
			35.1959361393324	-22.6850507982583
			35.2104499274311	-22.6850507982583
			35.2249637155298	-22.6850507982583
			35.2394775036284	-22.699564586357
			35.2539912917271	-22.699564586357
			35.2685050798258	-22.699564586357
			35.2830188679245	-22.7140783744557
			35.2975326560232	-22.7140783744557
			35.3120464441219	-22.7140783744557
			35.3265602322206	-22.7285921625544
			35.3410740203193	-22.7285921625544
			35.355587808418	-22.7431059506531
			35.3701015965167	-22.7431059506531
			35.3846153846154	-22.7576197387518
			35.3991291727141	-22.7576197387518
			35.4136429608128	-22.7721335268505
			35.4281567489115	-22.7866473149492
			35.4426705370102	-22.7866473149492
			35.4571843251089	-22.8011611030479
			35.4716981132075	-22.8156748911466
			35.4862119013062	-22.8156748911466
			35.4862119013062	-22.8301886792453
			35.5007256894049	-22.8301886792453
			35.5152394775036	-22.844702467344
			35.5297532656023	-22.8592162554427
			35.544267053701	-22.8737300435414
			35.5587808417997	-22.8882438316401
			35.5732946298984	-22.9027576197388
			35.5878084179971	-22.9172714078374
			35.5878084179971	-22.9317851959361
			35.6023222060958	-22.9462989840348
			35.6168359941945	-22.9608127721335
			35.6168359941945	-22.9753265602322
			35.6313497822932	-22.9898403483309
			35.6313497822932	-23.0043541364296
			35.6458635703919	-23.0188679245283
			35.6458635703919	-23.033381712627
			35.6603773584906	-23.0478955007257
			35.6603773584906	-23.0624092888244
			35.6748911465893	-23.0624092888244
			35.6748911465893	-23.0769230769231
			35.689404934688	-23.0914368650218
			35.689404934688	-23.1059506531205
			35.689404934688	-23.1204644412192
			35.7039187227866	-23.1349782293179
			35.7184325108853	-23.1494920174165
			35.7184325108853	-23.1640058055152
			35.7184325108853	-23.1785195936139
			35.7184325108853	-23.1930333817126
			35.732946298984	-23.1930333817126
			35.732946298984	-23.2075471698113
			35.732946298984	-23.22206095791
			35.7474600870827	-23.22206095791
			35.7474600870827	-23.2365747460087
			35.7474600870827	-23.2510885341074
			35.7474600870827	-23.2656023222061
			35.7619738751814	-23.2801161103048
			35.7619738751814	-23.2946298984035
			35.7619738751814	-23.3091436865022
			35.7619738751814	-23.3236574746009
			35.7764876632801	-23.3381712626996
			35.7764876632801	-23.3526850507983
			35.7764876632801	-23.367198838897
			35.7764876632801	-23.3817126269956
			35.7764876632801	-23.3962264150943
			35.7764876632801	-23.410740203193
			35.7764876632801	-23.4252539912917
			35.7910014513788	-23.4397677793904
			35.7910014513788	-23.4542815674891
			35.7910014513788	-23.4687953555878
			35.7910014513788	-23.4833091436865
		</Outline3>
		<Outline4 type=matrix rownames=FALSE colnames=FALSE nrow=130 ncol=2 as.numeric=TRUE >
			35.7910014513788	-23.4833091436865
			35.7910014513788	-23.4978229317852
			35.7910014513788	-23.5123367198839
			35.7910014513788	-23.5268505079826
			35.7910014513788	-23.5413642960813
			35.7910014513788	-23.55587808418
			35.7910014513788	-23.5703918722787
			35.8055152394775	-23.5703918722787
			35.8055152394775	-23.5849056603774
			35.8055152394775	-23.5994194484761
			35.8055152394775	-23.6139332365747
			35.8055152394775	-23.6284470246734
			35.8055152394775	-23.6429608127721
			35.8055152394775	-23.6574746008708
			35.8055152394775	-23.6719883889695
			35.8055152394775	-23.6865021770682
			35.8055152394775	-23.7010159651669
			35.8055152394775	-23.7155297532656
			35.8055152394775	-23.7300435413643
			35.8055152394775	-23.744557329463
			35.8055152394775	-23.7590711175617
			35.8055152394775	-23.7735849056604
			35.8055152394775	-23.7880986937591
			35.8055152394775	-23.8026124818578
			35.8055152394775	-23.8171262699565
			35.7910014513788	-23.8316400580552
			35.7910014513788	-23.8461538461538
			35.7910014513788	-23.8606676342525
			35.7910014513788	-23.8751814223512
			35.7910014513788	-23.8896952104499
			35.7910014513788	-23.9042089985486
			35.7764876632801	-23.9187227866473
			35.7764876632801	-23.933236574746
			35.7764876632801	-23.9477503628447
			35.7764876632801	-23.9622641509434
			35.7764876632801	-23.9767779390421
			35.7764876632801	-23.9912917271408
			35.7619738751814	-24.0058055152395
			35.7619738751814	-24.0203193033382
			35.7619738751814	-24.0348330914369
			35.7619738751814	-24.0493468795356
			35.7619738751814	-24.0638606676343
			35.7474600870827	-24.0638606676343
			35.7474600870827	-24.0783744557329
			35.7474600870827	-24.0928882438316
			35.7474600870827	-24.1074020319303
			35.7474600870827	-24.121915820029
			35.7474600870827	-24.1364296081277
			35.732946298984	-24.1509433962264
			35.732946298984	-24.1654571843251
			35.732946298984	-24.1799709724238
			35.7184325108853	-24.1944847605225
			35.7039187227866	-24.2089985486212
			35.7039187227866	-24.2235123367199
			35.689404934688	-24.2380261248186
			35.6748911465893	-24.2380261248186
			35.6748911465893	-24.2525399129173
			35.6603773584906	-24.267053701016
			35.6458635703919	-24.2815674891147
			35.6313497822932	-24.2960812772134
			35.6168359941945	-24.310595065312
			35.6023222060958	-24.3251088534107
			35.5878084179971	-24.3251088534107
			35.5878084179971	-24.3396226415094
			35.5732946298984	-24.3396226415094
			35.5587808417997	-24.3541364296081
			35.544267053701	-24.3686502177068
			35.5297532656023	-24.3686502177068
			35.5152394775036	-24.3831640058055
			35.5007256894049	-24.3976777939042
			35.4862119013062	-24.4121915820029
			35.4716981132075	-24.4267053701016
			35.4571843251089	-24.4267053701016
			35.4426705370102	-24.4412191582003
			35.4281567489115	-24.455732946299
			35.4136429608128	-24.455732946299
			35.3991291727141	-24.4702467343977
			35.3846153846154	-24.4847605224964
			35.3701015965167	-24.4992743105951
			35.355587808418	-24.4992743105951
			35.3410740203193	-24.5137880986938
			35.3265602322206	-24.5137880986938
			35.3120464441219	-24.5283018867925
			35.2975326560232	-24.5283018867925
			35.2830188679245	-24.5283018867925
			35.2685050798258	-24.5428156748911
			35.2539912917271	-24.5428156748911
			35.2394775036284	-24.5573294629898
			35.2249637155298	-24.5573294629898
			35.2104499274311	-24.5718432510885
			35.1959361393324	-24.5718432510885
			35.1814223512337	-24.5718432510885
			35.166908563135	-24.5863570391872
			35.1523947750363	-24.5863570391872
			35.1378809869376	-24.5863570391872
			35.1233671988389	-24.6008708272859
			35.1088534107402	-24.6008708272859
			35.0943396226415	-24.6008708272859
			35.0798258345428	-24.6153846153846
			35.0653120464441	-24.6153846153846
			35.0507982583454	-24.6153846153846
			35.0362844702467	-24.6298984034833
			35.021770682148	-24.6298984034833
			35.0072568940493	-24.644412191582
			34.9927431059507	-24.644412191582
			34.978229317852	-24.6589259796807
			34.9637155297533	-24.6589259796807
			34.9492017416546	-24.6589259796807
			34.9346879535559	-24.6589259796807
			34.9201741654572	-24.6734397677794
			34.9056603773585	-24.6734397677794
			34.8911465892598	-24.6734397677794
			34.8911465892598	-24.6879535558781
			34.8766328011611	-24.6879535558781
			34.8621190130624	-24.6879535558781
			34.8476052249637	-24.7024673439768
			34.833091436865	-24.7024673439768
			34.833091436865	-24.7169811320755
			34.8185776487663	-24.7169811320755
			34.8040638606676	-24.7314949201742
			34.7895500725689	-24.7314949201742
			34.7895500725689	-24.7460087082729
			34.7750362844702	-24.7460087082729
			34.7605224963716	-24.7605224963716
			34.7460087082729	-24.7750362844702
			34.7314949201742	-24.7895500725689
			34.7169811320755	-24.8040638606676
			34.7024673439768	-24.8040638606676
			34.6879535558781	-24.8185776487663
			34.6734397677794	-24.833091436865
		</Outline4>
	</curves.scaled>
	<ruler.points type=matrix rownames=TRUE colnames=FALSE nrow=2 ncol=2 as.numeric=TRUE >
		Ruler point 1	2877	417
		Ruler point 2	2188	417
	</ruler.points>
</shapes>

