<shapes type=list>
	<ruler.pixel type=vector names=FALSE length=1 as.numeric=TRUE >683.002928251409</ruler.pixel>
	<ruler.interval type=vector names=FALSE length=1 as.numeric=TRUE >10</ruler.interval>
	<scaling.units type=vector names=FALSE length=1 as.numeric=FALSE >mm</scaling.units>
	<scaling type=vector names=FALSE length=1 as.numeric=TRUE >0.0146412256615085</scaling>
	<landmarks.pixel type=matrix rownames=TRUE colnames=FALSE nrow=4 ncol=2 as.numeric=TRUE >
		Labial	2467	1630
		Posterior	2364	1592
		Lingual	2401	1487
		Anterior	2509	1525
	</landmarks.pixel>
	<landmarks.scaled type=matrix rownames=TRUE colnames=FALSE nrow=4 ncol=2 as.numeric=TRUE >
		Labial	36.1199037069415	-23.8651978282589
		Posterior	34.6118574638061	-23.3088312531216
		Lingual	35.153582813282	-21.7715025586632
		Anterior	36.7348351847249	-22.3278691338005
	</landmarks.scaled>
	<curves.control type=list>
		<Outline1 type=matrix rownames=FALSE colnames=FALSE nrow=19 ncol=2 as.numeric=TRUE >
			2467	1630
			2463	1637
			2458	1643
			2452	1648
			2444	1652
			2436	1655
			2428	1656
			2421	1656
			2412	1654
			2404	1652
			2397	1648
			2390	1643
			2383	1638
			2379	1633
			2375	1626
			2371	1618
			2369	1609
			2367	1600
			2364	1592
		</Outline1>
		<Outline2 type=matrix rownames=FALSE colnames=FALSE nrow=13 ncol=2 as.numeric=TRUE >
			2364	1592
			2362	1576
			2360	1564
			2359	1552
			2360	1539
			2362	1528
			2369	1517
			2374	1509
			2380	1503
			2386	1498
			2391	1494
			2396	1490
			2401	1487
		</Outline2>
		<Outline3 type=matrix rownames=FALSE colnames=FALSE nrow=21 ncol=2 as.numeric=TRUE >
			2401	1487
			2407	1485
			2415	1484
			2421	1484
			2428	1485
			2433	1486
			2438	1486
			2445	1485
			2453	1485
			2459	1485
			2465	1487
			2471	1489
			2478	1491
			2483	1494
			2488	1497
			2493	1500
			2496	1504
			2500	1509
			2503	1514
			2506	1519
			2509	1525
		</Outline3>
		<Outline4 type=matrix rownames=FALSE colnames=FALSE nrow=17 ncol=2 as.numeric=TRUE >
			2509	1525
			2512	1534
			2513	1541
			2514	1549
			2513	1559
			2511	1569
			2509	1577
			2506	1585
			2501	1590
			2496	1595
			2491	1599
			2486	1604
			2481	1608
			2477	1614
			2473	1619
			2471	1623
			2467	1630
		</Outline4>
	</curves.control>
	<curves.pixel type=list>
		<Outline1 type=matrix rownames=FALSE colnames=FALSE nrow=144 ncol=2 as.numeric=TRUE >
			2467	1630
			2467	1631
			2466	1632
			2466	1633
			2465	1633
			2464	1634
			2464	1635
			2463	1636
			2463	1637
			2462	1637
			2462	1638
			2461	1639
			2461	1640
			2460	1640
			2460	1641
			2459	1642
			2458	1643
			2457	1644
			2456	1645
			2455	1645
			2454	1646
			2453	1647
			2452	1647
			2451	1648
			2450	1649
			2449	1649
			2448	1650
			2447	1650
			2446	1651
			2445	1652
			2444	1652
			2443	1652
			2443	1653
			2442	1653
			2441	1653
			2440	1653
			2439	1654
			2438	1654
			2437	1654
			2436	1654
			2435	1655
			2434	1655
			2433	1655
			2432	1655
			2431	1656
			2430	1656
			2429	1656
			2428	1656
			2427	1656
			2426	1656
			2425	1656
			2424	1656
			2423	1656
			2422	1656
			2421	1656
			2420	1655
			2419	1655
			2418	1655
			2417	1655
			2416	1655
			2415	1655
			2414	1654
			2413	1654
			2412	1654
			2411	1654
			2410	1653
			2409	1653
			2408	1653
			2407	1652
			2406	1652
			2405	1652
			2404	1651
			2403	1651
			2402	1651
			2401	1650
			2400	1650
			2399	1649
			2398	1649
			2397	1648
			2396	1647
			2395	1646
			2394	1646
			2393	1645
			2392	1644
			2391	1644
			2390	1643
			2389	1642
			2388	1641
			2387	1641
			2386	1640
			2385	1640
			2385	1639
			2384	1639
			2383	1638
			2382	1637
			2381	1636
			2381	1635
			2380	1634
			2379	1633
			2379	1632
			2378	1632
			2378	1631
			2377	1630
			2377	1629
			2376	1628
			2376	1627
			2375	1627
			2375	1626
			2374	1625
			2374	1624
			2374	1623
			2373	1623
			2373	1622
			2373	1621
			2372	1620
			2372	1619
			2372	1618
			2371	1617
			2371	1616
			2371	1615
			2370	1614
			2370	1613
			2370	1612
			2369	1611
			2369	1610
			2369	1609
			2369	1608
			2368	1607
			2368	1606
			2368	1605
			2368	1604
			2367	1603
			2367	1602
			2367	1601
			2367	1600
			2366	1599
			2366	1598
			2366	1597
			2365	1596
			2365	1595
			2365	1594
			2365	1593
			2364	1593
			2364	1592
		</Outline1>
		<Outline2 type=matrix rownames=FALSE colnames=FALSE nrow=118 ncol=2 as.numeric=TRUE >
			2364	1592
			2364	1591
			2364	1590
			2364	1589
			2364	1588
			2363	1587
			2363	1586
			2363	1585
			2363	1584
			2363	1583
			2363	1582
			2363	1581
			2362	1580
			2362	1579
			2362	1578
			2362	1577
			2362	1576
			2362	1575
			2362	1574
			2361	1573
			2361	1572
			2361	1571
			2361	1570
			2361	1569
			2361	1568
			2360	1567
			2360	1566
			2360	1565
			2360	1564
			2360	1563
			2360	1562
			2360	1561
			2360	1560
			2360	1559
			2360	1558
			2360	1557
			2360	1556
			2360	1555
			2360	1554
			2360	1553
			2360	1552
			2360	1551
			2360	1550
			2360	1549
			2360	1548
			2360	1547
			2360	1546
			2360	1545
			2360	1544
			2360	1543
			2360	1542
			2360	1541
			2360	1540
			2360	1539
			2360	1538
			2360	1537
			2361	1537
			2361	1536
			2361	1535
			2361	1534
			2361	1533
			2362	1532
			2362	1531
			2363	1530
			2363	1529
			2363	1528
			2364	1527
			2364	1526
			2365	1525
			2365	1524
			2366	1523
			2366	1522
			2367	1521
			2367	1520
			2368	1519
			2369	1518
			2369	1517
			2370	1516
			2370	1515
			2371	1515
			2371	1514
			2372	1513
			2372	1512
			2373	1512
			2373	1511
			2374	1510
			2375	1509
			2376	1508
			2377	1507
			2377	1506
			2378	1505
			2379	1505
			2379	1504
			2380	1503
			2381	1502
			2382	1501
			2383	1500
			2384	1500
			2385	1499
			2386	1498
			2387	1497
			2388	1497
			2389	1496
			2389	1495
			2390	1495
			2391	1494
			2392	1493
			2393	1493
			2393	1492
			2394	1491
			2395	1491
			2396	1490
			2397	1490
			2397	1489
			2398	1489
			2399	1488
			2400	1488
			2401	1487
		</Outline2>
		<Outline3 type=matrix rownames=FALSE colnames=FALSE nrow=122 ncol=2 as.numeric=TRUE >
			2401	1487
			2402	1487
			2403	1486
			2404	1486
			2405	1486
			2406	1486
			2407	1485
			2408	1485
			2409	1485
			2410	1485
			2411	1485
			2412	1484
			2413	1484
			2414	1484
			2415	1484
			2416	1484
			2417	1484
			2418	1484
			2419	1484
			2420	1484
			2421	1484
			2422	1484
			2423	1484
			2424	1484
			2425	1485
			2426	1485
			2427	1485
			2428	1485
			2429	1485
			2430	1485
			2431	1486
			2432	1486
			2433	1486
			2434	1486
			2435	1486
			2436	1486
			2437	1486
			2438	1486
			2439	1486
			2440	1486
			2441	1486
			2442	1486
			2443	1485
			2444	1485
			2445	1485
			2446	1485
			2447	1485
			2448	1485
			2449	1485
			2450	1485
			2451	1485
			2452	1485
			2453	1485
			2454	1485
			2455	1485
			2456	1485
			2457	1485
			2458	1485
			2459	1486
			2460	1486
			2461	1486
			2462	1486
			2463	1486
			2464	1487
			2465	1487
			2466	1487
			2467	1488
			2468	1488
			2469	1488
			2470	1489
			2471	1489
			2472	1489
			2473	1490
			2474	1490
			2475	1490
			2476	1490
			2476	1491
			2477	1491
			2478	1491
			2479	1491
			2479	1492
			2480	1492
			2481	1493
			2482	1493
			2483	1494
			2484	1495
			2485	1495
			2486	1496
			2487	1496
			2488	1497
			2489	1498
			2490	1498
			2491	1499
			2492	1500
			2493	1501
			2494	1502
			2495	1502
			2495	1503
			2496	1504
			2497	1505
			2498	1506
			2499	1507
			2499	1508
			2500	1509
			2501	1510
			2501	1511
			2502	1512
			2502	1513
			2503	1514
			2503	1515
			2504	1515
			2504	1516
			2505	1517
			2505	1518
			2506	1519
			2506	1520
			2507	1521
			2507	1522
			2508	1522
			2508	1523
			2509	1524
			2509	1525
		</Outline3>
		<Outline4 type=matrix rownames=FALSE colnames=FALSE nrow=112 ncol=2 as.numeric=TRUE >
			2509	1525
			2509	1526
			2510	1527
			2510	1528
			2510	1529
			2511	1530
			2511	1531
			2511	1532
			2511	1533
			2512	1534
			2512	1535
			2512	1536
			2512	1537
			2512	1538
			2513	1539
			2513	1540
			2513	1541
			2513	1542
			2513	1543
			2513	1544
			2513	1545
			2513	1546
			2513	1547
			2513	1548
			2513	1549
			2513	1550
			2513	1551
			2513	1552
			2513	1553
			2513	1554
			2513	1555
			2513	1556
			2513	1557
			2513	1558
			2513	1559
			2513	1560
			2513	1561
			2512	1561
			2512	1562
			2512	1563
			2512	1564
			2512	1565
			2512	1566
			2511	1567
			2511	1568
			2511	1569
			2511	1570
			2511	1571
			2510	1571
			2510	1572
			2510	1573
			2510	1574
			2510	1575
			2509	1576
			2509	1577
			2509	1578
			2508	1579
			2508	1580
			2507	1581
			2507	1582
			2506	1583
			2506	1584
			2505	1585
			2504	1586
			2504	1587
			2503	1588
			2502	1588
			2502	1589
			2501	1590
			2500	1591
			2499	1592
			2498	1593
			2497	1594
			2496	1595
			2495	1596
			2494	1596
			2493	1597
			2492	1598
			2492	1599
			2491	1599
			2490	1600
			2489	1601
			2488	1602
			2487	1603
			2486	1604
			2485	1605
			2484	1606
			2483	1607
			2482	1608
			2481	1609
			2480	1610
			2479	1611
			2478	1612
			2477	1613
			2477	1614
			2476	1615
			2475	1616
			2475	1617
			2474	1617
			2474	1618
			2473	1619
			2473	1620
			2472	1621
			2471	1622
			2471	1623
			2470	1624
			2470	1625
			2469	1626
			2469	1627
			2468	1628
			2468	1629
			2467	1630
		</Outline4>
	</curves.pixel>
	<curves.scaled type=list>
		<Outline1 type=matrix rownames=FALSE colnames=FALSE nrow=144 ncol=2 as.numeric=TRUE >
			36.1199037069415	-23.8651978282589
			36.1199037069415	-23.8798390539204
			36.10526248128	-23.8944802795819
			36.10526248128	-23.9091215052434
			36.0906212556185	-23.9091215052434
			36.075980029957	-23.9237627309049
			36.075980029957	-23.9384039565664
			36.0613388042955	-23.9530451822279
			36.0613388042955	-23.9676864078895
			36.046697578634	-23.9676864078895
			36.046697578634	-23.982327633551
			36.0320563529725	-23.9969688592125
			36.0320563529725	-24.011610084874
			36.017415127311	-24.011610084874
			36.017415127311	-24.0262513105355
			36.0027739016495	-24.040892536197
			35.9881326759879	-24.0555337618585
			35.9734914503264	-24.07017498752
			35.9588502246649	-24.0848162131815
			35.9442089990034	-24.0848162131815
			35.9295677733419	-24.099457438843
			35.9149265476804	-24.1140986645045
			35.9002853220189	-24.1140986645045
			35.8856440963574	-24.128739890166
			35.8710028706959	-24.1433811158276
			35.8563616450344	-24.1433811158276
			35.8417204193729	-24.1580223414891
			35.8270791937114	-24.1580223414891
			35.8124379680498	-24.1726635671506
			35.7977967423883	-24.1873047928121
			35.7831555167268	-24.1873047928121
			35.7685142910653	-24.1873047928121
			35.7685142910653	-24.2019460184736
			35.7538730654038	-24.2019460184736
			35.7392318397423	-24.2019460184736
			35.7245906140808	-24.2019460184736
			35.7099493884193	-24.2165872441351
			35.6953081627578	-24.2165872441351
			35.6806669370963	-24.2165872441351
			35.6660257114348	-24.2165872441351
			35.6513844857732	-24.2312284697966
			35.6367432601117	-24.2312284697966
			35.6221020344502	-24.2312284697966
			35.6074608087887	-24.2312284697966
			35.5928195831272	-24.2458696954581
			35.5781783574657	-24.2458696954581
			35.5635371318042	-24.2458696954581
			35.5488959061427	-24.2458696954581
			35.5342546804812	-24.2458696954581
			35.5196134548197	-24.2458696954581
			35.5049722291582	-24.2458696954581
			35.4903310034967	-24.2458696954581
			35.4756897778352	-24.2458696954581
			35.4610485521736	-24.2458696954581
			35.4464073265121	-24.2458696954581
			35.4317661008506	-24.2312284697966
			35.4171248751891	-24.2312284697966
			35.4024836495276	-24.2312284697966
			35.3878424238661	-24.2312284697966
			35.3732011982046	-24.2312284697966
			35.3585599725431	-24.2312284697966
			35.3439187468816	-24.2165872441351
			35.3292775212201	-24.2165872441351
			35.3146362955586	-24.2165872441351
			35.2999950698971	-24.2165872441351
			35.2853538442355	-24.2019460184736
			35.270712618574	-24.2019460184736
			35.2560713929125	-24.2019460184736
			35.241430167251	-24.1873047928121
			35.2267889415895	-24.1873047928121
			35.212147715928	-24.1873047928121
			35.1975064902665	-24.1726635671506
			35.182865264605	-24.1726635671506
			35.1682240389435	-24.1726635671506
			35.153582813282	-24.1580223414891
			35.1389415876205	-24.1580223414891
			35.1243003619589	-24.1433811158276
			35.1096591362974	-24.1433811158276
			35.0950179106359	-24.128739890166
			35.0803766849744	-24.1140986645045
			35.0657354593129	-24.099457438843
			35.0510942336514	-24.099457438843
			35.0364530079899	-24.0848162131815
			35.0218117823284	-24.07017498752
			35.0071705566669	-24.07017498752
			34.9925293310054	-24.0555337618585
			34.9778881053439	-24.040892536197
			34.9632468796824	-24.0262513105355
			34.9486056540208	-24.0262513105355
			34.9339644283593	-24.011610084874
			34.9193232026978	-24.011610084874
			34.9193232026978	-23.9969688592125
			34.9046819770363	-23.9969688592125
			34.8900407513748	-23.982327633551
			34.8753995257133	-23.9676864078895
			34.8607583000518	-23.9530451822279
			34.8607583000518	-23.9384039565664
			34.8461170743903	-23.9237627309049
			34.8314758487288	-23.9091215052434
			34.8314758487288	-23.8944802795819
			34.8168346230673	-23.8944802795819
			34.8168346230673	-23.8798390539204
			34.8021933974058	-23.8651978282589
			34.8021933974058	-23.8505566025974
			34.7875521717443	-23.8359153769359
			34.7875521717443	-23.8212741512744
			34.7729109460827	-23.8212741512744
			34.7729109460827	-23.8066329256129
			34.7582697204212	-23.7919916999513
			34.7582697204212	-23.7773504742898
			34.7582697204212	-23.7627092486283
			34.7436284947597	-23.7627092486283
			34.7436284947597	-23.7480680229668
			34.7436284947597	-23.7334267973053
			34.7289872690982	-23.7187855716438
			34.7289872690982	-23.7041443459823
			34.7289872690982	-23.6895031203208
			34.7143460434367	-23.6748618946593
			34.7143460434367	-23.6602206689978
			34.7143460434367	-23.6455794433363
			34.6997048177752	-23.6309382176748
			34.6997048177752	-23.6162969920132
			34.6997048177752	-23.6016557663517
			34.6850635921137	-23.5870145406902
			34.6850635921137	-23.5723733150287
			34.6850635921137	-23.5577320893672
			34.6850635921137	-23.5430908637057
			34.6704223664522	-23.5284496380442
			34.6704223664522	-23.5138084123827
			34.6704223664522	-23.4991671867212
			34.6704223664522	-23.4845259610597
			34.6557811407907	-23.4698847353982
			34.6557811407907	-23.4552435097367
			34.6557811407907	-23.4406022840751
			34.6557811407907	-23.4259610584136
			34.6411399151292	-23.4113198327521
			34.6411399151292	-23.3966786070906
			34.6411399151292	-23.3820373814291
			34.6264986894677	-23.3673961557676
			34.6264986894677	-23.3527549301061
			34.6264986894677	-23.3381137044446
			34.6264986894677	-23.3234724787831
			34.6118574638061	-23.3234724787831
			34.6118574638061	-23.3088312531216
		</Outline1>
		<Outline2 type=matrix rownames=FALSE colnames=FALSE nrow=118 ncol=2 as.numeric=TRUE >
			34.6118574638061	-23.3088312531216
			34.6118574638061	-23.2941900274601
			34.6118574638061	-23.2795488017986
			34.6118574638061	-23.264907576137
			34.6118574638061	-23.2502663504755
			34.5972162381446	-23.235625124814
			34.5972162381446	-23.2209838991525
			34.5972162381446	-23.206342673491
			34.5972162381446	-23.1917014478295
			34.5972162381446	-23.177060222168
			34.5972162381446	-23.1624189965065
			34.5972162381446	-23.147777770845
			34.5825750124831	-23.1331365451835
			34.5825750124831	-23.118495319522
			34.5825750124831	-23.1038540938604
			34.5825750124831	-23.0892128681989
			34.5825750124831	-23.0745716425374
			34.5825750124831	-23.0599304168759
			34.5825750124831	-23.0452891912144
			34.5679337868216	-23.0306479655529
			34.5679337868216	-23.0160067398914
			34.5679337868216	-23.0013655142299
			34.5679337868216	-22.9867242885684
			34.5679337868216	-22.9720830629069
			34.5679337868216	-22.9574418372454
			34.5532925611601	-22.9428006115839
			34.5532925611601	-22.9281593859223
			34.5532925611601	-22.9135181602608
			34.5532925611601	-22.8988769345993
			34.5532925611601	-22.8842357089378
			34.5532925611601	-22.8695944832763
			34.5532925611601	-22.8549532576148
			34.5532925611601	-22.8403120319533
			34.5532925611601	-22.8256708062918
			34.5532925611601	-22.8110295806303
			34.5532925611601	-22.7963883549688
			34.5532925611601	-22.7817471293073
			34.5532925611601	-22.7671059036458
			34.5532925611601	-22.7524646779842
			34.5532925611601	-22.7378234523227
			34.5532925611601	-22.7231822266612
			34.5532925611601	-22.7085410009997
			34.5532925611601	-22.6938997753382
			34.5532925611601	-22.6792585496767
			34.5532925611601	-22.6646173240152
			34.5532925611601	-22.6499760983537
			34.5532925611601	-22.6353348726922
			34.5532925611601	-22.6206936470307
			34.5532925611601	-22.6060524213692
			34.5532925611601	-22.5914111957076
			34.5532925611601	-22.5767699700461
			34.5532925611601	-22.5621287443846
			34.5532925611601	-22.5474875187231
			34.5532925611601	-22.5328462930616
			34.5532925611601	-22.5182050674001
			34.5532925611601	-22.5035638417386
			34.5679337868216	-22.5035638417386
			34.5679337868216	-22.4889226160771
			34.5679337868216	-22.4742813904156
			34.5679337868216	-22.4596401647541
			34.5679337868216	-22.4449989390926
			34.5825750124831	-22.4303577134311
			34.5825750124831	-22.4157164877695
			34.5972162381446	-22.401075262108
			34.5972162381446	-22.3864340364465
			34.5972162381446	-22.371792810785
			34.6118574638061	-22.3571515851235
			34.6118574638061	-22.342510359462
			34.6264986894677	-22.3278691338005
			34.6264986894677	-22.313227908139
			34.6411399151292	-22.2985866824775
			34.6411399151292	-22.283945456816
			34.6557811407907	-22.2693042311545
			34.6557811407907	-22.254663005493
			34.6704223664522	-22.2400217798314
			34.6850635921137	-22.2253805541699
			34.6850635921137	-22.2107393285084
			34.6997048177752	-22.1960981028469
			34.6997048177752	-22.1814568771854
			34.7143460434367	-22.1814568771854
			34.7143460434367	-22.1668156515239
			34.7289872690982	-22.1521744258624
			34.7289872690982	-22.1375332002009
			34.7436284947597	-22.1375332002009
			34.7436284947597	-22.1228919745394
			34.7582697204212	-22.1082507488779
			34.7729109460827	-22.0936095232164
			34.7875521717443	-22.0789682975549
			34.8021933974058	-22.0643270718933
			34.8021933974058	-22.0496858462318
			34.8168346230673	-22.0350446205703
			34.8314758487288	-22.0350446205703
			34.8314758487288	-22.0204033949088
			34.8461170743903	-22.0057621692473
			34.8607583000518	-21.9911209435858
			34.8753995257133	-21.9764797179243
			34.8900407513748	-21.9618384922628
			34.9046819770363	-21.9618384922628
			34.9193232026978	-21.9471972666013
			34.9339644283593	-21.9325560409398
			34.9486056540208	-21.9179148152783
			34.9632468796824	-21.9179148152783
			34.9778881053439	-21.9032735896167
			34.9778881053439	-21.8886323639552
			34.9925293310054	-21.8886323639552
			35.0071705566669	-21.8739911382937
			35.0218117823284	-21.8593499126322
			35.0364530079899	-21.8593499126322
			35.0364530079899	-21.8447086869707
			35.0510942336514	-21.8300674613092
			35.0657354593129	-21.8300674613092
			35.0803766849744	-21.8154262356477
			35.0950179106359	-21.8154262356477
			35.0950179106359	-21.8007850099862
			35.1096591362974	-21.8007850099862
			35.1243003619589	-21.7861437843247
			35.1389415876205	-21.7861437843247
			35.153582813282	-21.7715025586632
		</Outline2>
		<Outline3 type=matrix rownames=FALSE colnames=FALSE nrow=122 ncol=2 as.numeric=TRUE >
			35.153582813282	-21.7715025586632
			35.1682240389435	-21.7715025586632
			35.182865264605	-21.7568613330017
			35.1975064902665	-21.7568613330017
			35.212147715928	-21.7568613330017
			35.2267889415895	-21.7568613330017
			35.241430167251	-21.7422201073402
			35.2560713929125	-21.7422201073402
			35.270712618574	-21.7422201073402
			35.2853538442355	-21.7422201073402
			35.2999950698971	-21.7422201073402
			35.3146362955586	-21.7275788816786
			35.3292775212201	-21.7275788816786
			35.3439187468816	-21.7275788816786
			35.3585599725431	-21.7275788816786
			35.3732011982046	-21.7275788816786
			35.3878424238661	-21.7275788816786
			35.4024836495276	-21.7275788816786
			35.4171248751891	-21.7275788816786
			35.4317661008506	-21.7275788816786
			35.4464073265121	-21.7275788816786
			35.4610485521736	-21.7275788816786
			35.4756897778352	-21.7275788816786
			35.4903310034967	-21.7275788816786
			35.5049722291582	-21.7422201073402
			35.5196134548197	-21.7422201073402
			35.5342546804812	-21.7422201073402
			35.5488959061427	-21.7422201073402
			35.5635371318042	-21.7422201073402
			35.5781783574657	-21.7422201073402
			35.5928195831272	-21.7568613330017
			35.6074608087887	-21.7568613330017
			35.6221020344502	-21.7568613330017
			35.6367432601117	-21.7568613330017
			35.6513844857732	-21.7568613330017
			35.6660257114348	-21.7568613330017
			35.6806669370963	-21.7568613330017
			35.6953081627578	-21.7568613330017
			35.7099493884193	-21.7568613330017
			35.7245906140808	-21.7568613330017
			35.7392318397423	-21.7568613330017
			35.7538730654038	-21.7568613330017
			35.7685142910653	-21.7422201073402
			35.7831555167268	-21.7422201073402
			35.7977967423883	-21.7422201073402
			35.8124379680498	-21.7422201073402
			35.8270791937114	-21.7422201073402
			35.8417204193729	-21.7422201073402
			35.8563616450344	-21.7422201073402
			35.8710028706959	-21.7422201073402
			35.8856440963574	-21.7422201073402
			35.9002853220189	-21.7422201073402
			35.9149265476804	-21.7422201073402
			35.9295677733419	-21.7422201073402
			35.9442089990034	-21.7422201073402
			35.9588502246649	-21.7422201073402
			35.9734914503264	-21.7422201073402
			35.9881326759879	-21.7422201073402
			36.0027739016495	-21.7568613330017
			36.017415127311	-21.7568613330017
			36.0320563529725	-21.7568613330017
			36.046697578634	-21.7568613330017
			36.0613388042955	-21.7568613330017
			36.075980029957	-21.7715025586632
			36.0906212556185	-21.7715025586632
			36.10526248128	-21.7715025586632
			36.1199037069415	-21.7861437843247
			36.134544932603	-21.7861437843247
			36.1491861582645	-21.7861437843247
			36.163827383926	-21.8007850099862
			36.1784686095876	-21.8007850099862
			36.1931098352491	-21.8007850099862
			36.2077510609106	-21.8154262356477
			36.2223922865721	-21.8154262356477
			36.2370335122336	-21.8154262356477
			36.2516747378951	-21.8154262356477
			36.2516747378951	-21.8300674613092
			36.2663159635566	-21.8300674613092
			36.2809571892181	-21.8300674613092
			36.2955984148796	-21.8300674613092
			36.2955984148796	-21.8447086869707
			36.3102396405411	-21.8447086869707
			36.3248808662026	-21.8593499126322
			36.3395220918642	-21.8593499126322
			36.3541633175257	-21.8739911382937
			36.3688045431872	-21.8886323639552
			36.3834457688487	-21.8886323639552
			36.3980869945102	-21.9032735896167
			36.4127282201717	-21.9032735896167
			36.4273694458332	-21.9179148152783
			36.4420106714947	-21.9325560409398
			36.4566518971562	-21.9325560409398
			36.4712931228177	-21.9471972666013
			36.4859343484792	-21.9618384922628
			36.5005755741407	-21.9764797179243
			36.5152167998023	-21.9911209435858
			36.5298580254638	-21.9911209435858
			36.5298580254638	-22.0057621692473
			36.5444992511253	-22.0204033949088
			36.5591404767868	-22.0350446205703
			36.5737817024483	-22.0496858462318
			36.5884229281098	-22.0643270718933
			36.5884229281098	-22.0789682975549
			36.6030641537713	-22.0936095232164
			36.6177053794328	-22.1082507488779
			36.6177053794328	-22.1228919745394
			36.6323466050943	-22.1375332002009
			36.6323466050943	-22.1521744258624
			36.6469878307558	-22.1668156515239
			36.6469878307558	-22.1814568771854
			36.6616290564173	-22.1814568771854
			36.6616290564173	-22.1960981028469
			36.6762702820788	-22.2107393285084
			36.6762702820788	-22.2253805541699
			36.6909115077404	-22.2400217798314
			36.6909115077404	-22.254663005493
			36.7055527334019	-22.2693042311545
			36.7055527334019	-22.283945456816
			36.7201939590634	-22.283945456816
			36.7201939590634	-22.2985866824775
			36.7348351847249	-22.313227908139
			36.7348351847249	-22.3278691338005
		</Outline3>
		<Outline4 type=matrix rownames=FALSE colnames=FALSE nrow=112 ncol=2 as.numeric=TRUE >
			36.7348351847249	-22.3278691338005
			36.7348351847249	-22.342510359462
			36.7494764103864	-22.3571515851235
			36.7494764103864	-22.371792810785
			36.7494764103864	-22.3864340364465
			36.7641176360479	-22.401075262108
			36.7641176360479	-22.4157164877695
			36.7641176360479	-22.4303577134311
			36.7641176360479	-22.4449989390926
			36.7787588617094	-22.4596401647541
			36.7787588617094	-22.4742813904156
			36.7787588617094	-22.4889226160771
			36.7787588617094	-22.5035638417386
			36.7787588617094	-22.5182050674001
			36.7934000873709	-22.5328462930616
			36.7934000873709	-22.5474875187231
			36.7934000873709	-22.5621287443846
			36.7934000873709	-22.5767699700461
			36.7934000873709	-22.5914111957076
			36.7934000873709	-22.6060524213692
			36.7934000873709	-22.6206936470307
			36.7934000873709	-22.6353348726922
			36.7934000873709	-22.6499760983537
			36.7934000873709	-22.6646173240152
			36.7934000873709	-22.6792585496767
			36.7934000873709	-22.6938997753382
			36.7934000873709	-22.7085410009997
			36.7934000873709	-22.7231822266612
			36.7934000873709	-22.7378234523227
			36.7934000873709	-22.7524646779842
			36.7934000873709	-22.7671059036458
			36.7934000873709	-22.7817471293073
			36.7934000873709	-22.7963883549688
			36.7934000873709	-22.8110295806303
			36.7934000873709	-22.8256708062918
			36.7934000873709	-22.8403120319533
			36.7934000873709	-22.8549532576148
			36.7787588617094	-22.8549532576148
			36.7787588617094	-22.8695944832763
			36.7787588617094	-22.8842357089378
			36.7787588617094	-22.8988769345993
			36.7787588617094	-22.9135181602608
			36.7787588617094	-22.9281593859223
			36.7641176360479	-22.9428006115839
			36.7641176360479	-22.9574418372454
			36.7641176360479	-22.9720830629069
			36.7641176360479	-22.9867242885684
			36.7641176360479	-23.0013655142299
			36.7494764103864	-23.0013655142299
			36.7494764103864	-23.0160067398914
			36.7494764103864	-23.0306479655529
			36.7494764103864	-23.0452891912144
			36.7494764103864	-23.0599304168759
			36.7348351847249	-23.0745716425374
			36.7348351847249	-23.0892128681989
			36.7348351847249	-23.1038540938604
			36.7201939590634	-23.118495319522
			36.7201939590634	-23.1331365451835
			36.7055527334019	-23.147777770845
			36.7055527334019	-23.1624189965065
			36.6909115077404	-23.177060222168
			36.6909115077404	-23.1917014478295
			36.6762702820788	-23.206342673491
			36.6616290564173	-23.2209838991525
			36.6616290564173	-23.235625124814
			36.6469878307558	-23.2502663504755
			36.6323466050943	-23.2502663504755
			36.6323466050943	-23.264907576137
			36.6177053794328	-23.2795488017986
			36.6030641537713	-23.2941900274601
			36.5884229281098	-23.3088312531216
			36.5737817024483	-23.3234724787831
			36.5591404767868	-23.3381137044446
			36.5444992511253	-23.3527549301061
			36.5298580254638	-23.3673961557676
			36.5152167998023	-23.3673961557676
			36.5005755741407	-23.3820373814291
			36.4859343484792	-23.3966786070906
			36.4859343484792	-23.4113198327521
			36.4712931228177	-23.4113198327521
			36.4566518971562	-23.4259610584136
			36.4420106714947	-23.4406022840751
			36.4273694458332	-23.4552435097367
			36.4127282201717	-23.4698847353982
			36.3980869945102	-23.4845259610597
			36.3834457688487	-23.4991671867212
			36.3688045431872	-23.5138084123827
			36.3541633175257	-23.5284496380442
			36.3395220918642	-23.5430908637057
			36.3248808662026	-23.5577320893672
			36.3102396405411	-23.5723733150287
			36.2955984148796	-23.5870145406902
			36.2809571892181	-23.6016557663517
			36.2663159635566	-23.6162969920132
			36.2663159635566	-23.6309382176748
			36.2516747378951	-23.6455794433363
			36.2370335122336	-23.6602206689978
			36.2370335122336	-23.6748618946593
			36.2223922865721	-23.6748618946593
			36.2223922865721	-23.6895031203208
			36.2077510609106	-23.7041443459823
			36.2077510609106	-23.7187855716438
			36.1931098352491	-23.7334267973053
			36.1784686095876	-23.7480680229668
			36.1784686095876	-23.7627092486283
			36.163827383926	-23.7773504742898
			36.163827383926	-23.7919916999513
			36.1491861582645	-23.8066329256129
			36.1491861582645	-23.8212741512744
			36.134544932603	-23.8359153769359
			36.134544932603	-23.8505566025974
			36.1199037069415	-23.8651978282589
		</Outline4>
	</curves.scaled>
	<ruler.points type=matrix rownames=TRUE colnames=FALSE nrow=2 ncol=2 as.numeric=TRUE >
		Ruler point 1	2791	2514
		Ruler point 2	2108	2516
	</ruler.points>
</shapes>

