<shapes type=list>
	<ruler.pixel type=vector names=FALSE length=1 as.numeric=TRUE >1960.04999936226</ruler.pixel>
	<ruler.interval type=vector names=FALSE length=1 as.numeric=TRUE >10</ruler.interval>
	<scaling.units type=vector names=FALSE length=1 as.numeric=FALSE >mm</scaling.units>
	<scaling type=vector names=FALSE length=1 as.numeric=TRUE >0.00510191066720425</scaling>
	<landmarks.pixel type=matrix rownames=TRUE colnames=FALSE nrow=4 ncol=2 as.numeric=TRUE >
		Labial	2354	1422
		Posterior	2325	1350
		Lingual	2394	1316
		Anterior	2423	1390
	</landmarks.pixel>
	<landmarks.scaled type=matrix rownames=TRUE colnames=FALSE nrow=4 ncol=2 as.numeric=TRUE >
		Labial	12.0098977105988	-7.25491696876444
		Posterior	11.8619423012499	-6.88757940072573
		Lingual	12.213974137287	-6.71411443804079
		Anterior	12.3619295466359	-7.0916558274139
	</landmarks.scaled>
	<curves.control type=list>
		<Outline1 type=matrix rownames=FALSE colnames=FALSE nrow=13 ncol=2 as.numeric=TRUE >
			2354	1422
			2348	1419
			2342	1415
			2337	1410
			2332	1405
			2329	1400
			2326	1393
			2323	1386
			2322	1378
			2322	1371
			2322	1363
			2323	1357
			2325	1350
		</Outline1>
		<Outline2 type=matrix rownames=FALSE colnames=FALSE nrow=15 ncol=2 as.numeric=TRUE >
			2325	1350
			2327	1343
			2330	1338
			2333	1334
			2339	1329
			2344	1324
			2349	1320
			2353	1317
			2358	1315
			2363	1313
			2370	1312
			2377	1312
			2382	1313
			2388	1314
			2394	1316
		</Outline2>
		<Outline3 type=matrix rownames=FALSE colnames=FALSE nrow=11 ncol=2 as.numeric=TRUE >
			2394	1316
			2401	1319
			2408	1323
			2415	1329
			2419	1336
			2423	1342
			2426	1351
			2428	1360
			2428	1369
			2428	1378
			2423	1390
		</Outline3>
		<Outline4 type=matrix rownames=FALSE colnames=FALSE nrow=13 ncol=2 as.numeric=TRUE >
			2423	1390
			2420	1397
			2416	1404
			2412	1410
			2407	1416
			2402	1419
			2396	1422
			2389	1423
			2382	1424
			2375	1425
			2369	1425
			2361	1424
			2354	1422
		</Outline4>
	</curves.control>
	<curves.pixel type=list>
		<Outline1 type=matrix rownames=FALSE colnames=FALSE nrow=80 ncol=2 as.numeric=TRUE >
			2354	1422
			2353	1422
			2352	1421
			2351	1421
			2351	1420
			2350	1420
			2349	1419
			2348	1419
			2347	1418
			2346	1418
			2346	1417
			2345	1417
			2344	1416
			2343	1416
			2342	1415
			2341	1414
			2340	1413
			2339	1412
			2338	1411
			2337	1410
			2336	1409
			2335	1408
			2334	1407
			2333	1406
			2332	1405
			2331	1404
			2331	1403
			2330	1402
			2330	1401
			2329	1400
			2329	1399
			2328	1398
			2328	1397
			2327	1396
			2327	1395
			2327	1394
			2326	1393
			2326	1392
			2325	1391
			2325	1390
			2325	1389
			2324	1388
			2324	1387
			2324	1386
			2323	1385
			2323	1384
			2323	1383
			2323	1382
			2322	1381
			2322	1380
			2322	1379
			2322	1378
			2322	1377
			2322	1376
			2322	1375
			2322	1374
			2322	1373
			2322	1372
			2322	1371
			2322	1370
			2322	1369
			2322	1368
			2322	1367
			2322	1366
			2322	1365
			2322	1364
			2322	1363
			2322	1362
			2322	1361
			2323	1360
			2323	1359
			2323	1358
			2323	1357
			2323	1356
			2324	1355
			2324	1354
			2324	1353
			2325	1352
			2325	1351
			2325	1350
		</Outline1>
		<Outline2 type=matrix rownames=FALSE colnames=FALSE nrow=79 ncol=2 as.numeric=TRUE >
			2325	1350
			2325	1349
			2326	1348
			2326	1347
			2326	1346
			2327	1345
			2327	1344
			2328	1343
			2328	1342
			2328	1341
			2329	1340
			2329	1339
			2330	1338
			2331	1337
			2332	1336
			2333	1335
			2334	1334
			2335	1333
			2336	1332
			2337	1331
			2338	1330
			2339	1329
			2340	1328
			2341	1327
			2342	1326
			2343	1325
			2344	1325
			2345	1324
			2346	1323
			2347	1322
			2348	1321
			2348	1320
			2349	1320
			2350	1319
			2351	1319
			2352	1318
			2353	1318
			2354	1317
			2355	1316
			2356	1316
			2357	1315
			2358	1315
			2359	1315
			2360	1314
			2361	1314
			2362	1314
			2363	1313
			2364	1313
			2365	1313
			2366	1313
			2367	1312
			2368	1312
			2369	1312
			2370	1312
			2371	1312
			2372	1312
			2373	1312
			2374	1312
			2375	1312
			2376	1312
			2377	1312
			2378	1312
			2379	1313
			2380	1313
			2381	1313
			2382	1313
			2383	1313
			2384	1313
			2385	1313
			2385	1314
			2386	1314
			2387	1314
			2388	1314
			2389	1314
			2390	1315
			2391	1315
			2392	1315
			2393	1316
			2394	1316
		</Outline2>
		<Outline3 type=matrix rownames=FALSE colnames=FALSE nrow=84 ncol=2 as.numeric=TRUE >
			2394	1316
			2395	1316
			2396	1317
			2397	1317
			2398	1318
			2399	1318
			2400	1319
			2401	1319
			2402	1320
			2403	1320
			2404	1321
			2405	1321
			2406	1322
			2407	1322
			2407	1323
			2408	1323
			2409	1324
			2410	1325
			2411	1326
			2412	1327
			2413	1328
			2414	1328
			2414	1329
			2415	1330
			2416	1331
			2416	1332
			2417	1333
			2418	1334
			2418	1335
			2419	1336
			2420	1337
			2420	1338
			2421	1339
			2421	1340
			2422	1341
			2422	1342
			2423	1343
			2423	1344
			2424	1345
			2424	1346
			2424	1347
			2425	1348
			2425	1349
			2426	1350
			2426	1351
			2426	1352
			2426	1353
			2427	1354
			2427	1355
			2427	1356
			2427	1357
			2427	1358
			2427	1359
			2428	1360
			2428	1361
			2428	1362
			2428	1363
			2428	1364
			2428	1365
			2428	1366
			2428	1367
			2428	1368
			2428	1369
			2428	1370
			2428	1371
			2428	1372
			2428	1373
			2428	1374
			2428	1375
			2427	1376
			2427	1377
			2427	1378
			2427	1379
			2426	1380
			2426	1381
			2426	1382
			2425	1383
			2425	1384
			2425	1385
			2425	1386
			2424	1387
			2424	1388
			2423	1389
			2423	1390
		</Outline3>
		<Outline4 type=matrix rownames=FALSE colnames=FALSE nrow=82 ncol=2 as.numeric=TRUE >
			2423	1390
			2423	1391
			2422	1392
			2422	1393
			2421	1394
			2421	1395
			2420	1396
			2420	1397
			2419	1398
			2419	1399
			2418	1400
			2418	1401
			2417	1402
			2417	1403
			2416	1404
			2416	1405
			2415	1405
			2414	1406
			2414	1407
			2413	1408
			2413	1409
			2412	1410
			2411	1410
			2411	1411
			2410	1412
			2409	1413
			2409	1414
			2408	1415
			2407	1416
			2406	1417
			2405	1417
			2404	1418
			2403	1418
			2402	1419
			2401	1419
			2400	1420
			2399	1420
			2398	1421
			2397	1421
			2396	1422
			2395	1422
			2394	1422
			2393	1422
			2392	1423
			2391	1423
			2390	1423
			2389	1423
			2388	1423
			2387	1423
			2386	1423
			2385	1424
			2384	1424
			2383	1424
			2382	1424
			2381	1424
			2380	1424
			2379	1424
			2378	1425
			2377	1425
			2376	1425
			2375	1425
			2374	1425
			2373	1425
			2372	1425
			2371	1425
			2370	1425
			2369	1425
			2368	1425
			2367	1425
			2366	1425
			2365	1424
			2364	1424
			2363	1424
			2362	1424
			2361	1424
			2360	1423
			2359	1423
			2358	1423
			2357	1423
			2356	1423
			2355	1422
			2354	1422
		</Outline4>
	</curves.pixel>
	<curves.scaled type=list>
		<Outline1 type=matrix rownames=FALSE colnames=FALSE nrow=80 ncol=2 as.numeric=TRUE >
			12.0098977105988	-7.25491696876444
			12.0047957999316	-7.25491696876444
			11.9996938892644	-7.24981505809724
			11.9945919785972	-7.24981505809724
			11.9945919785972	-7.24471314743003
			11.98949006793	-7.24471314743003
			11.9843881572628	-7.23961123676283
			11.9792862465956	-7.23961123676283
			11.9741843359284	-7.23450932609562
			11.9690824252612	-7.23450932609562
			11.9690824252612	-7.22940741542842
			11.963980514594	-7.22940741542842
			11.9588786039268	-7.22430550476122
			11.9537766932596	-7.22430550476122
			11.9486747825923	-7.21920359409401
			11.9435728719251	-7.21410168342681
			11.9384709612579	-7.2089997727596
			11.9333690505907	-7.2038978620924
			11.9282671399235	-7.19879595142519
			11.9231652292563	-7.19369404075799
			11.9180633185891	-7.18859213009079
			11.9129614079219	-7.18349021942358
			11.9078594972547	-7.17838830875638
			11.9027575865875	-7.17328639808917
			11.8976556759203	-7.16818448742197
			11.8925537652531	-7.16308257675476
			11.8925537652531	-7.15798066608756
			11.8874518545859	-7.15287875542036
			11.8874518545859	-7.14777684475315
			11.8823499439187	-7.14267493408595
			11.8823499439187	-7.13757302341874
			11.8772480332515	-7.13247111275154
			11.8772480332515	-7.12736920208433
			11.8721461225843	-7.12226729141713
			11.8721461225843	-7.11716538074993
			11.8721461225843	-7.11206347008272
			11.8670442119171	-7.10696155941552
			11.8670442119171	-7.10185964874831
			11.8619423012499	-7.09675773808111
			11.8619423012499	-7.0916558274139
			11.8619423012499	-7.0865539167467
			11.8568403905827	-7.0814520060795
			11.8568403905827	-7.07635009541229
			11.8568403905827	-7.07124818474509
			11.8517384799155	-7.06614627407788
			11.8517384799155	-7.06104436341068
			11.8517384799155	-7.05594245274347
			11.8517384799155	-7.05084054207627
			11.8466365692483	-7.04573863140907
			11.8466365692483	-7.04063672074186
			11.8466365692483	-7.03553481007466
			11.8466365692483	-7.03043289940745
			11.8466365692483	-7.02533098874025
			11.8466365692483	-7.02022907807305
			11.8466365692483	-7.01512716740584
			11.8466365692483	-7.01002525673864
			11.8466365692483	-7.00492334607143
			11.8466365692483	-6.99982143540423
			11.8466365692483	-6.99471952473702
			11.8466365692483	-6.98961761406982
			11.8466365692483	-6.98451570340262
			11.8466365692483	-6.97941379273541
			11.8466365692483	-6.97431188206821
			11.8466365692483	-6.969209971401
			11.8466365692483	-6.9641080607338
			11.8466365692483	-6.95900615006659
			11.8466365692483	-6.95390423939939
			11.8466365692483	-6.94880232873219
			11.8466365692483	-6.94370041806498
			11.8517384799155	-6.93859850739778
			11.8517384799155	-6.93349659673057
			11.8517384799155	-6.92839468606337
			11.8517384799155	-6.92329277539616
			11.8517384799155	-6.91819086472896
			11.8568403905827	-6.91308895406176
			11.8568403905827	-6.90798704339455
			11.8568403905827	-6.90288513272735
			11.8619423012499	-6.89778322206014
			11.8619423012499	-6.89268131139294
			11.8619423012499	-6.88757940072573
		</Outline1>
		<Outline2 type=matrix rownames=FALSE colnames=FALSE nrow=79 ncol=2 as.numeric=TRUE >
			11.8619423012499	-6.88757940072573
			11.8619423012499	-6.88247749005853
			11.8670442119171	-6.87737557939133
			11.8670442119171	-6.87227366872412
			11.8670442119171	-6.86717175805692
			11.8721461225843	-6.86206984738971
			11.8721461225843	-6.85696793672251
			11.8772480332515	-6.8518660260553
			11.8772480332515	-6.8467641153881
			11.8772480332515	-6.8416622047209
			11.8823499439187	-6.83656029405369
			11.8823499439187	-6.83145838338649
			11.8874518545859	-6.82635647271928
			11.8925537652531	-6.82125456205208
			11.8976556759203	-6.81615265138488
			11.9027575865875	-6.81105074071767
			11.9078594972547	-6.80594883005047
			11.9129614079219	-6.80084691938326
			11.9180633185891	-6.79574500871606
			11.9231652292563	-6.79064309804885
			11.9282671399235	-6.78554118738165
			11.9333690505907	-6.78043927671445
			11.9384709612579	-6.77533736604724
			11.9435728719251	-6.77023545538004
			11.9486747825923	-6.76513354471283
			11.9537766932596	-6.76003163404563
			11.9588786039268	-6.76003163404563
			11.963980514594	-6.75492972337842
			11.9690824252612	-6.74982781271122
			11.9741843359284	-6.74472590204402
			11.9792862465956	-6.73962399137681
			11.9792862465956	-6.73452208070961
			11.9843881572628	-6.73452208070961
			11.98949006793	-6.7294201700424
			11.9945919785972	-6.7294201700424
			11.9996938892644	-6.7243182593752
			12.0047957999316	-6.7243182593752
			12.0098977105988	-6.71921634870799
			12.014999621266	-6.71411443804079
			12.0201015319332	-6.71411443804079
			12.0252034426004	-6.70901252737359
			12.0303053532676	-6.70901252737359
			12.0354072639348	-6.70901252737359
			12.040509174602	-6.70391061670638
			12.0456110852692	-6.70391061670638
			12.0507129959364	-6.70391061670638
			12.0558149066036	-6.69880870603918
			12.0609168172708	-6.69880870603918
			12.066018727938	-6.69880870603918
			12.0711206386053	-6.69880870603918
			12.0762225492725	-6.69370679537197
			12.0813244599397	-6.69370679537197
			12.0864263706069	-6.69370679537197
			12.0915282812741	-6.69370679537197
			12.0966301919413	-6.69370679537197
			12.1017321026085	-6.69370679537197
			12.1068340132757	-6.69370679537197
			12.1119359239429	-6.69370679537197
			12.1170378346101	-6.69370679537197
			12.1221397452773	-6.69370679537197
			12.1272416559445	-6.69370679537197
			12.1323435666117	-6.69370679537197
			12.1374454772789	-6.69880870603918
			12.1425473879461	-6.69880870603918
			12.1476492986133	-6.69880870603918
			12.1527512092805	-6.69880870603918
			12.1578531199477	-6.69880870603918
			12.1629550306149	-6.69880870603918
			12.1680569412821	-6.69880870603918
			12.1680569412821	-6.70391061670638
			12.1731588519493	-6.70391061670638
			12.1782607626165	-6.70391061670638
			12.1833626732837	-6.70391061670638
			12.1884645839509	-6.70391061670638
			12.1935664946182	-6.70901252737359
			12.1986684052854	-6.70901252737359
			12.2037703159526	-6.70901252737359
			12.2088722266198	-6.71411443804079
			12.213974137287	-6.71411443804079
		</Outline2>
		<Outline3 type=matrix rownames=FALSE colnames=FALSE nrow=84 ncol=2 as.numeric=TRUE >
			12.213974137287	-6.71411443804079
			12.2190760479542	-6.71411443804079
			12.2241779586214	-6.71921634870799
			12.2292798692886	-6.71921634870799
			12.2343817799558	-6.7243182593752
			12.239483690623	-6.7243182593752
			12.2445856012902	-6.7294201700424
			12.2496875119574	-6.7294201700424
			12.2547894226246	-6.73452208070961
			12.2598913332918	-6.73452208070961
			12.264993243959	-6.73962399137681
			12.2700951546262	-6.73962399137681
			12.2751970652934	-6.74472590204402
			12.2802989759606	-6.74472590204402
			12.2802989759606	-6.74982781271122
			12.2854008866278	-6.74982781271122
			12.290502797295	-6.75492972337842
			12.2956047079622	-6.76003163404563
			12.3007066186294	-6.76513354471283
			12.3058085292966	-6.77023545538004
			12.3109104399639	-6.77533736604724
			12.3160123506311	-6.77533736604724
			12.3160123506311	-6.78043927671445
			12.3211142612983	-6.78554118738165
			12.3262161719655	-6.79064309804885
			12.3262161719655	-6.79574500871606
			12.3313180826327	-6.80084691938326
			12.3364199932999	-6.80594883005047
			12.3364199932999	-6.81105074071767
			12.3415219039671	-6.81615265138488
			12.3466238146343	-6.82125456205208
			12.3466238146343	-6.82635647271928
			12.3517257253015	-6.83145838338649
			12.3517257253015	-6.83656029405369
			12.3568276359687	-6.8416622047209
			12.3568276359687	-6.8467641153881
			12.3619295466359	-6.8518660260553
			12.3619295466359	-6.85696793672251
			12.3670314573031	-6.86206984738971
			12.3670314573031	-6.86717175805692
			12.3670314573031	-6.87227366872412
			12.3721333679703	-6.87737557939133
			12.3721333679703	-6.88247749005853
			12.3772352786375	-6.88757940072573
			12.3772352786375	-6.89268131139294
			12.3772352786375	-6.89778322206014
			12.3772352786375	-6.90288513272735
			12.3823371893047	-6.90798704339455
			12.3823371893047	-6.91308895406176
			12.3823371893047	-6.91819086472896
			12.3823371893047	-6.92329277539616
			12.3823371893047	-6.92839468606337
			12.3823371893047	-6.93349659673057
			12.3874390999719	-6.93859850739778
			12.3874390999719	-6.94370041806498
			12.3874390999719	-6.94880232873219
			12.3874390999719	-6.95390423939939
			12.3874390999719	-6.95900615006659
			12.3874390999719	-6.9641080607338
			12.3874390999719	-6.969209971401
			12.3874390999719	-6.97431188206821
			12.3874390999719	-6.97941379273541
			12.3874390999719	-6.98451570340262
			12.3874390999719	-6.98961761406982
			12.3874390999719	-6.99471952473702
			12.3874390999719	-6.99982143540423
			12.3874390999719	-7.00492334607143
			12.3874390999719	-7.01002525673864
			12.3874390999719	-7.01512716740584
			12.3823371893047	-7.02022907807305
			12.3823371893047	-7.02533098874025
			12.3823371893047	-7.03043289940745
			12.3823371893047	-7.03553481007466
			12.3772352786375	-7.04063672074186
			12.3772352786375	-7.04573863140907
			12.3772352786375	-7.05084054207627
			12.3721333679703	-7.05594245274347
			12.3721333679703	-7.06104436341068
			12.3721333679703	-7.06614627407788
			12.3721333679703	-7.07124818474509
			12.3670314573031	-7.07635009541229
			12.3670314573031	-7.0814520060795
			12.3619295466359	-7.0865539167467
			12.3619295466359	-7.0916558274139
		</Outline3>
		<Outline4 type=matrix rownames=FALSE colnames=FALSE nrow=82 ncol=2 as.numeric=TRUE >
			12.3619295466359	-7.0916558274139
			12.3619295466359	-7.09675773808111
			12.3568276359687	-7.10185964874831
			12.3568276359687	-7.10696155941552
			12.3517257253015	-7.11206347008272
			12.3517257253015	-7.11716538074993
			12.3466238146343	-7.12226729141713
			12.3466238146343	-7.12736920208433
			12.3415219039671	-7.13247111275154
			12.3415219039671	-7.13757302341874
			12.3364199932999	-7.14267493408595
			12.3364199932999	-7.14777684475315
			12.3313180826327	-7.15287875542036
			12.3313180826327	-7.15798066608756
			12.3262161719655	-7.16308257675476
			12.3262161719655	-7.16818448742197
			12.3211142612983	-7.16818448742197
			12.3160123506311	-7.17328639808917
			12.3160123506311	-7.17838830875638
			12.3109104399639	-7.18349021942358
			12.3109104399639	-7.18859213009079
			12.3058085292966	-7.19369404075799
			12.3007066186294	-7.19369404075799
			12.3007066186294	-7.19879595142519
			12.2956047079622	-7.2038978620924
			12.290502797295	-7.2089997727596
			12.290502797295	-7.21410168342681
			12.2854008866278	-7.21920359409401
			12.2802989759606	-7.22430550476122
			12.2751970652934	-7.22940741542842
			12.2700951546262	-7.22940741542842
			12.264993243959	-7.23450932609562
			12.2598913332918	-7.23450932609562
			12.2547894226246	-7.23961123676283
			12.2496875119574	-7.23961123676283
			12.2445856012902	-7.24471314743003
			12.239483690623	-7.24471314743003
			12.2343817799558	-7.24981505809724
			12.2292798692886	-7.24981505809724
			12.2241779586214	-7.25491696876444
			12.2190760479542	-7.25491696876444
			12.213974137287	-7.25491696876444
			12.2088722266198	-7.25491696876444
			12.2037703159526	-7.26001887943164
			12.1986684052854	-7.26001887943164
			12.1935664946182	-7.26001887943164
			12.1884645839509	-7.26001887943164
			12.1833626732837	-7.26001887943164
			12.1782607626165	-7.26001887943164
			12.1731588519493	-7.26001887943164
			12.1680569412821	-7.26512079009885
			12.1629550306149	-7.26512079009885
			12.1578531199477	-7.26512079009885
			12.1527512092805	-7.26512079009885
			12.1476492986133	-7.26512079009885
			12.1425473879461	-7.26512079009885
			12.1374454772789	-7.26512079009885
			12.1323435666117	-7.27022270076605
			12.1272416559445	-7.27022270076605
			12.1221397452773	-7.27022270076605
			12.1170378346101	-7.27022270076605
			12.1119359239429	-7.27022270076605
			12.1068340132757	-7.27022270076605
			12.1017321026085	-7.27022270076605
			12.0966301919413	-7.27022270076605
			12.0915282812741	-7.27022270076605
			12.0864263706069	-7.27022270076605
			12.0813244599397	-7.27022270076605
			12.0762225492725	-7.27022270076605
			12.0711206386053	-7.27022270076605
			12.066018727938	-7.26512079009885
			12.0609168172708	-7.26512079009885
			12.0558149066036	-7.26512079009885
			12.0507129959364	-7.26512079009885
			12.0456110852692	-7.26512079009885
			12.040509174602	-7.26001887943164
			12.0354072639348	-7.26001887943164
			12.0303053532676	-7.26001887943164
			12.0252034426004	-7.26001887943164
			12.0201015319332	-7.26001887943164
			12.014999621266	-7.25491696876444
			12.0098977105988	-7.25491696876444
		</Outline4>
	</curves.scaled>
	<ruler.points type=matrix rownames=TRUE colnames=FALSE nrow=2 ncol=2 as.numeric=TRUE >
		Ruler point 1	2396	2554
		Ruler point 2	436	2568
	</ruler.points>
</shapes>

