<shapes type=list>
	<ruler.pixel type=vector names=FALSE length=1 as.numeric=TRUE >1956.08282033251</ruler.pixel>
	<ruler.interval type=vector names=FALSE length=1 as.numeric=TRUE >10</ruler.interval>
	<scaling.units type=vector names=FALSE length=1 as.numeric=FALSE >mm</scaling.units>
	<scaling type=vector names=FALSE length=1 as.numeric=TRUE >0.0051122579760197</scaling>
	<landmarks.pixel type=matrix rownames=TRUE colnames=FALSE nrow=4 ncol=2 as.numeric=TRUE >
		Labial	2347	1850
		Posterior	2307	1799
		Lingual	2362	1762
		Anterior	2403	1815
	</landmarks.pixel>
	<landmarks.scaled type=matrix rownames=TRUE colnames=FALSE nrow=4 ncol=2 as.numeric=TRUE >
		Labial	11.9984694697182	-9.45767725563644
		Posterior	11.7939791506774	-9.19695209885944
		Lingual	12.0751533393585	-9.00779855374671
		Anterior	12.2847559163753	-9.27874822647575
	</landmarks.scaled>
	<curves.control type=list>
		<Outline1 type=matrix rownames=FALSE colnames=FALSE nrow=9 ncol=2 as.numeric=TRUE >
			2347	1850
			2339	1849
			2330	1846
			2323	1843
			2316	1838
			2311	1832
			2308	1825
			2306	1815
			2307	1799
		</Outline1>
		<Outline2 type=matrix rownames=FALSE colnames=FALSE nrow=13 ncol=2 as.numeric=TRUE >
			2307	1799
			2308	1789
			2310	1780
			2312	1775
			2316	1770
			2321	1765
			2327	1762
			2334	1760
			2341	1759
			2347	1759
			2353	1760
			2358	1761
			2362	1762
		</Outline2>
		<Outline3 type=matrix rownames=FALSE colnames=FALSE nrow=13 ncol=2 as.numeric=TRUE >
			2362	1762
			2368	1765
			2374	1769
			2380	1774
			2385	1778
			2390	1783
			2394	1787
			2398	1792
			2400	1796
			2403	1801
			2403	1806
			2403	1810
			2403	1815
		</Outline3>
		<Outline4 type=matrix rownames=FALSE colnames=FALSE nrow=13 ncol=2 as.numeric=TRUE >
			2403	1815
			2402	1821
			2400	1827
			2397	1833
			2393	1837
			2387	1841
			2382	1843
			2374	1846
			2368	1848
			2362	1850
			2357	1850
			2352	1850
			2347	1850
		</Outline4>
	</curves.control>
	<curves.pixel type=list>
		<Outline1 type=matrix rownames=FALSE colnames=FALSE nrow=74 ncol=2 as.numeric=TRUE >
			2347	1850
			2346	1850
			2345	1850
			2344	1850
			2344	1849
			2343	1849
			2342	1849
			2341	1849
			2340	1849
			2339	1849
			2338	1848
			2337	1848
			2336	1848
			2335	1848
			2335	1847
			2334	1847
			2333	1847
			2332	1847
			2331	1846
			2330	1846
			2329	1846
			2328	1845
			2327	1845
			2326	1844
			2325	1844
			2324	1843
			2323	1843
			2322	1842
			2321	1842
			2321	1841
			2320	1840
			2319	1840
			2318	1839
			2317	1839
			2316	1838
			2315	1837
			2314	1836
			2314	1835
			2313	1834
			2312	1833
			2312	1832
			2311	1831
			2310	1830
			2310	1829
			2309	1828
			2309	1827
			2308	1826
			2308	1825
			2308	1824
			2308	1823
			2308	1822
			2307	1821
			2307	1820
			2307	1819
			2307	1818
			2307	1817
			2307	1816
			2307	1815
			2307	1814
			2307	1813
			2307	1812
			2307	1811
			2307	1810
			2307	1809
			2307	1808
			2307	1807
			2307	1806
			2307	1805
			2307	1804
			2307	1803
			2307	1802
			2307	1801
			2307	1800
			2307	1799
		</Outline1>
		<Outline2 type=matrix rownames=FALSE colnames=FALSE nrow=77 ncol=2 as.numeric=TRUE >
			2307	1799
			2307	1798
			2307	1797
			2307	1796
			2307	1795
			2308	1794
			2308	1793
			2308	1792
			2308	1791
			2308	1790
			2308	1789
			2309	1788
			2309	1787
			2309	1786
			2309	1785
			2309	1784
			2309	1783
			2310	1782
			2310	1781
			2310	1780
			2310	1779
			2311	1779
			2311	1778
			2311	1777
			2312	1776
			2313	1775
			2313	1774
			2314	1773
			2315	1772
			2315	1771
			2316	1770
			2317	1769
			2318	1768
			2319	1767
			2320	1766
			2321	1765
			2322	1765
			2323	1764
			2324	1764
			2325	1763
			2326	1763
			2327	1762
			2328	1762
			2329	1762
			2330	1761
			2331	1761
			2332	1761
			2333	1760
			2334	1760
			2335	1760
			2336	1760
			2337	1760
			2338	1759
			2339	1759
			2340	1759
			2341	1759
			2342	1759
			2343	1759
			2344	1759
			2345	1759
			2346	1759
			2347	1759
			2348	1759
			2349	1759
			2350	1760
			2351	1760
			2352	1760
			2353	1760
			2354	1760
			2355	1760
			2356	1761
			2357	1761
			2358	1761
			2359	1761
			2360	1762
			2361	1762
			2362	1762
		</Outline2>
		<Outline3 type=matrix rownames=FALSE colnames=FALSE nrow=62 ncol=2 as.numeric=TRUE >
			2362	1762
			2363	1763
			2364	1763
			2365	1764
			2366	1764
			2367	1765
			2368	1765
			2369	1766
			2370	1766
			2371	1767
			2372	1768
			2373	1768
			2374	1769
			2375	1770
			2376	1771
			2377	1772
			2378	1772
			2379	1773
			2380	1774
			2381	1775
			2382	1775
			2383	1776
			2384	1777
			2385	1778
			2386	1779
			2387	1780
			2388	1781
			2389	1782
			2390	1783
			2391	1784
			2392	1785
			2393	1786
			2394	1787
			2395	1788
			2395	1789
			2396	1789
			2396	1790
			2397	1791
			2398	1792
			2399	1793
			2399	1794
			2399	1795
			2400	1796
			2401	1797
			2401	1798
			2402	1799
			2402	1800
			2402	1801
			2403	1802
			2403	1803
			2403	1804
			2403	1805
			2403	1806
			2403	1807
			2403	1808
			2403	1809
			2403	1810
			2403	1811
			2403	1812
			2403	1813
			2403	1814
			2403	1815
		</Outline3>
		<Outline4 type=matrix rownames=FALSE colnames=FALSE nrow=71 ncol=2 as.numeric=TRUE >
			2403	1815
			2403	1816
			2403	1817
			2402	1818
			2402	1819
			2402	1820
			2402	1821
			2402	1822
			2401	1823
			2401	1824
			2401	1825
			2400	1826
			2400	1827
			2400	1828
			2399	1829
			2399	1830
			2398	1831
			2397	1831
			2397	1832
			2396	1833
			2396	1834
			2395	1835
			2394	1836
			2393	1837
			2392	1838
			2391	1838
			2390	1839
			2389	1840
			2388	1840
			2387	1841
			2386	1841
			2385	1842
			2384	1842
			2383	1843
			2382	1843
			2381	1844
			2380	1844
			2379	1844
			2378	1844
			2378	1845
			2377	1845
			2376	1845
			2375	1846
			2374	1846
			2373	1846
			2372	1847
			2371	1847
			2370	1847
			2369	1848
			2368	1848
			2367	1848
			2366	1849
			2365	1849
			2364	1849
			2363	1849
			2362	1850
			2361	1850
			2360	1850
			2359	1850
			2358	1850
			2357	1850
			2356	1850
			2355	1850
			2354	1850
			2353	1850
			2352	1850
			2351	1850
			2350	1850
			2349	1850
			2348	1850
			2347	1850
		</Outline4>
	</curves.pixel>
	<curves.scaled type=list>
		<Outline1 type=matrix rownames=FALSE colnames=FALSE nrow=74 ncol=2 as.numeric=TRUE >
			11.9984694697182	-9.45767725563644
			11.9933572117422	-9.45767725563644
			11.9882449537662	-9.45767725563644
			11.9831326957902	-9.45767725563644
			11.9831326957902	-9.45256499766042
			11.9780204378142	-9.45256499766042
			11.9729081798381	-9.45256499766042
			11.9677959218621	-9.45256499766042
			11.9626836638861	-9.45256499766042
			11.9575714059101	-9.45256499766042
			11.9524591479341	-9.4474527396844
			11.947346889958	-9.4474527396844
			11.942234631982	-9.4474527396844
			11.937122374006	-9.4474527396844
			11.937122374006	-9.44234048170838
			11.93201011603	-9.44234048170838
			11.926897858054	-9.44234048170838
			11.9217856000779	-9.44234048170838
			11.9166733421019	-9.43722822373237
			11.9115610841259	-9.43722822373237
			11.9064488261499	-9.43722822373237
			11.9013365681739	-9.43211596575635
			11.8962243101978	-9.43211596575635
			11.8911120522218	-9.42700370778033
			11.8859997942458	-9.42700370778033
			11.8808875362698	-9.42189144980431
			11.8757752782938	-9.42189144980431
			11.8706630203177	-9.41677919182829
			11.8655507623417	-9.41677919182829
			11.8655507623417	-9.41166693385227
			11.8604385043657	-9.40655467587625
			11.8553262463897	-9.40655467587625
			11.8502139884137	-9.40144241790023
			11.8451017304376	-9.40144241790023
			11.8399894724616	-9.39633015992421
			11.8348772144856	-9.39121790194819
			11.8297649565096	-9.38610564397217
			11.8297649565096	-9.38099338599615
			11.8246526985336	-9.37588112802013
			11.8195404405575	-9.37076887004411
			11.8195404405575	-9.36565661206809
			11.8144281825815	-9.36054435409207
			11.8093159246055	-9.35543209611605
			11.8093159246055	-9.35031983814003
			11.8042036666295	-9.34520758016401
			11.8042036666295	-9.34009532218799
			11.7990914086535	-9.33498306421197
			11.7990914086535	-9.32987080623595
			11.7990914086535	-9.32475854825993
			11.7990914086535	-9.31964629028391
			11.7990914086535	-9.31453403230789
			11.7939791506774	-9.30942177433187
			11.7939791506774	-9.30430951635585
			11.7939791506774	-9.29919725837983
			11.7939791506774	-9.29408500040381
			11.7939791506774	-9.28897274242779
			11.7939791506774	-9.28386048445177
			11.7939791506774	-9.27874822647575
			11.7939791506774	-9.27363596849973
			11.7939791506774	-9.26852371052371
			11.7939791506774	-9.26341145254769
			11.7939791506774	-9.25829919457168
			11.7939791506774	-9.25318693659566
			11.7939791506774	-9.24807467861964
			11.7939791506774	-9.24296242064362
			11.7939791506774	-9.2378501626676
			11.7939791506774	-9.23273790469158
			11.7939791506774	-9.22762564671556
			11.7939791506774	-9.22251338873954
			11.7939791506774	-9.21740113076352
			11.7939791506774	-9.2122888727875
			11.7939791506774	-9.20717661481148
			11.7939791506774	-9.20206435683546
			11.7939791506774	-9.19695209885944
		</Outline1>
		<Outline2 type=matrix rownames=FALSE colnames=FALSE nrow=77 ncol=2 as.numeric=TRUE >
			11.7939791506774	-9.19695209885944
			11.7939791506774	-9.19183984088342
			11.7939791506774	-9.1867275829074
			11.7939791506774	-9.18161532493138
			11.7939791506774	-9.17650306695536
			11.7990914086535	-9.17139080897934
			11.7990914086535	-9.16627855100332
			11.7990914086535	-9.1611662930273
			11.7990914086535	-9.15605403505128
			11.7990914086535	-9.15094177707526
			11.7990914086535	-9.14582951909924
			11.8042036666295	-9.14071726112322
			11.8042036666295	-9.1356050031472
			11.8042036666295	-9.13049274517118
			11.8042036666295	-9.12538048719516
			11.8042036666295	-9.12026822921914
			11.8042036666295	-9.11515597124312
			11.8093159246055	-9.11004371326711
			11.8093159246055	-9.10493145529109
			11.8093159246055	-9.09981919731507
			11.8093159246055	-9.09470693933904
			11.8144281825815	-9.09470693933904
			11.8144281825815	-9.08959468136302
			11.8144281825815	-9.084482423387
			11.8195404405575	-9.07937016541099
			11.8246526985336	-9.07425790743497
			11.8246526985336	-9.06914564945895
			11.8297649565096	-9.06403339148293
			11.8348772144856	-9.05892113350691
			11.8348772144856	-9.05380887553089
			11.8399894724616	-9.04869661755487
			11.8451017304376	-9.04358435957885
			11.8502139884137	-9.03847210160283
			11.8553262463897	-9.03335984362681
			11.8604385043657	-9.02824758565079
			11.8655507623417	-9.02313532767477
			11.8706630203177	-9.02313532767477
			11.8757752782938	-9.01802306969875
			11.8808875362698	-9.01802306969875
			11.8859997942458	-9.01291081172273
			11.8911120522218	-9.01291081172273
			11.8962243101978	-9.00779855374671
			11.9013365681739	-9.00779855374671
			11.9064488261499	-9.00779855374671
			11.9115610841259	-9.00268629577069
			11.9166733421019	-9.00268629577069
			11.9217856000779	-9.00268629577069
			11.926897858054	-8.99757403779467
			11.93201011603	-8.99757403779467
			11.937122374006	-8.99757403779467
			11.942234631982	-8.99757403779467
			11.947346889958	-8.99757403779467
			11.9524591479341	-8.99246177981865
			11.9575714059101	-8.99246177981865
			11.9626836638861	-8.99246177981865
			11.9677959218621	-8.99246177981865
			11.9729081798381	-8.99246177981865
			11.9780204378142	-8.99246177981865
			11.9831326957902	-8.99246177981865
			11.9882449537662	-8.99246177981865
			11.9933572117422	-8.99246177981865
			11.9984694697182	-8.99246177981865
			12.0035817276943	-8.99246177981865
			12.0086939856703	-8.99246177981865
			12.0138062436463	-8.99757403779467
			12.0189185016223	-8.99757403779467
			12.0240307595983	-8.99757403779467
			12.0291430175744	-8.99757403779467
			12.0342552755504	-8.99757403779467
			12.0393675335264	-8.99757403779467
			12.0444797915024	-9.00268629577069
			12.0495920494784	-9.00268629577069
			12.0547043074545	-9.00268629577069
			12.0598165654305	-9.00268629577069
			12.0649288234065	-9.00779855374671
			12.0700410813825	-9.00779855374671
			12.0751533393585	-9.00779855374671
		</Outline2>
		<Outline3 type=matrix rownames=FALSE colnames=FALSE nrow=62 ncol=2 as.numeric=TRUE >
			12.0751533393585	-9.00779855374671
			12.0802655973345	-9.01291081172273
			12.0853778553106	-9.01291081172273
			12.0904901132866	-9.01802306969875
			12.0956023712626	-9.01802306969875
			12.1007146292386	-9.02313532767477
			12.1058268872146	-9.02313532767477
			12.1109391451907	-9.02824758565079
			12.1160514031667	-9.02824758565079
			12.1211636611427	-9.03335984362681
			12.1262759191187	-9.03847210160283
			12.1313881770947	-9.03847210160283
			12.1365004350708	-9.04358435957885
			12.1416126930468	-9.04869661755487
			12.1467249510228	-9.05380887553089
			12.1518372089988	-9.05892113350691
			12.1569494669748	-9.05892113350691
			12.1620617249509	-9.06403339148293
			12.1671739829269	-9.06914564945895
			12.1722862409029	-9.07425790743497
			12.1773984988789	-9.07425790743497
			12.1825107568549	-9.07937016541099
			12.187623014831	-9.084482423387
			12.192735272807	-9.08959468136302
			12.197847530783	-9.09470693933904
			12.202959788759	-9.09981919731507
			12.208072046735	-9.10493145529109
			12.2131843047111	-9.11004371326711
			12.2182965626871	-9.11515597124312
			12.2234088206631	-9.12026822921914
			12.2285210786391	-9.12538048719516
			12.2336333366151	-9.13049274517118
			12.2387455945912	-9.1356050031472
			12.2438578525672	-9.14071726112322
			12.2438578525672	-9.14582951909924
			12.2489701105432	-9.14582951909924
			12.2489701105432	-9.15094177707526
			12.2540823685192	-9.15605403505128
			12.2591946264952	-9.1611662930273
			12.2643068844713	-9.16627855100332
			12.2643068844713	-9.17139080897934
			12.2643068844713	-9.17650306695536
			12.2694191424473	-9.18161532493138
			12.2745314004233	-9.1867275829074
			12.2745314004233	-9.19183984088342
			12.2796436583993	-9.19695209885944
			12.2796436583993	-9.20206435683546
			12.2796436583993	-9.20717661481148
			12.2847559163753	-9.2122888727875
			12.2847559163753	-9.21740113076352
			12.2847559163753	-9.22251338873954
			12.2847559163753	-9.22762564671556
			12.2847559163753	-9.23273790469158
			12.2847559163753	-9.2378501626676
			12.2847559163753	-9.24296242064362
			12.2847559163753	-9.24807467861964
			12.2847559163753	-9.25318693659566
			12.2847559163753	-9.25829919457168
			12.2847559163753	-9.26341145254769
			12.2847559163753	-9.26852371052371
			12.2847559163753	-9.27363596849973
			12.2847559163753	-9.27874822647575
		</Outline3>
		<Outline4 type=matrix rownames=FALSE colnames=FALSE nrow=71 ncol=2 as.numeric=TRUE >
			12.2847559163753	-9.27874822647575
			12.2847559163753	-9.28386048445177
			12.2847559163753	-9.28897274242779
			12.2796436583993	-9.29408500040381
			12.2796436583993	-9.29919725837983
			12.2796436583993	-9.30430951635585
			12.2796436583993	-9.30942177433187
			12.2796436583993	-9.31453403230789
			12.2745314004233	-9.31964629028391
			12.2745314004233	-9.32475854825993
			12.2745314004233	-9.32987080623595
			12.2694191424473	-9.33498306421197
			12.2694191424473	-9.34009532218799
			12.2694191424473	-9.34520758016401
			12.2643068844713	-9.35031983814003
			12.2643068844713	-9.35543209611605
			12.2591946264952	-9.36054435409207
			12.2540823685192	-9.36054435409207
			12.2540823685192	-9.36565661206809
			12.2489701105432	-9.37076887004411
			12.2489701105432	-9.37588112802013
			12.2438578525672	-9.38099338599615
			12.2387455945912	-9.38610564397217
			12.2336333366151	-9.39121790194819
			12.2285210786391	-9.39633015992421
			12.2234088206631	-9.39633015992421
			12.2182965626871	-9.40144241790023
			12.2131843047111	-9.40655467587625
			12.208072046735	-9.40655467587625
			12.202959788759	-9.41166693385227
			12.197847530783	-9.41166693385227
			12.192735272807	-9.41677919182829
			12.187623014831	-9.41677919182829
			12.1825107568549	-9.42189144980431
			12.1773984988789	-9.42189144980431
			12.1722862409029	-9.42700370778033
			12.1671739829269	-9.42700370778033
			12.1620617249509	-9.42700370778033
			12.1569494669748	-9.42700370778033
			12.1569494669748	-9.43211596575635
			12.1518372089988	-9.43211596575635
			12.1467249510228	-9.43211596575635
			12.1416126930468	-9.43722822373237
			12.1365004350708	-9.43722822373237
			12.1313881770947	-9.43722822373237
			12.1262759191187	-9.44234048170838
			12.1211636611427	-9.44234048170838
			12.1160514031667	-9.44234048170838
			12.1109391451907	-9.4474527396844
			12.1058268872146	-9.4474527396844
			12.1007146292386	-9.4474527396844
			12.0956023712626	-9.45256499766042
			12.0904901132866	-9.45256499766042
			12.0853778553106	-9.45256499766042
			12.0802655973345	-9.45256499766042
			12.0751533393585	-9.45767725563644
			12.0700410813825	-9.45767725563644
			12.0649288234065	-9.45767725563644
			12.0598165654305	-9.45767725563644
			12.0547043074545	-9.45767725563644
			12.0495920494784	-9.45767725563644
			12.0444797915024	-9.45767725563644
			12.0393675335264	-9.45767725563644
			12.0342552755504	-9.45767725563644
			12.0291430175744	-9.45767725563644
			12.0240307595983	-9.45767725563644
			12.0189185016223	-9.45767725563644
			12.0138062436463	-9.45767725563644
			12.0086939856703	-9.45767725563644
			12.0035817276943	-9.45767725563644
			11.9984694697182	-9.45767725563644
		</Outline4>
	</curves.scaled>
	<ruler.points type=matrix rownames=TRUE colnames=FALSE nrow=2 ncol=2 as.numeric=TRUE >
		Ruler point 1	2926	263
		Ruler point 2	970	245
	</ruler.points>
</shapes>

